Wavelength nm.	DTTC.spc	DTDC.spc	DTCI.spc
2,000000000000000e+2	-4,000000000000000e+0	-4,000000000000000e+0	-4,000000000000000e+0
2,010000000000000e+2	-4,000000000000000e+0	-4,000000000000000e+0	-4,000000000000000e+0
2,020000000000000e+2	-4,000000000000000e+0	-4,000000000000000e+0	-4,000000000000000e+0
2,030000000000000e+2	-4,000000000000000e+0	-4,000000000000000e+0	-4,000000000000000e+0
2,040000000000000e+2	-4,000000000000000e+0	-4,000000000000000e+0	-4,000000000000000e+0
2,050000000000000e+2	-4,000000000000000e+0	-4,000000000000000e+0	-4,000000000000000e+0
2,060000000000000e+2	-4,000000000000000e+0	-4,000000000000000e+0	-4,000000000000000e+0
2,070000000000000e+2	-4,000000000000000e+0	-4,000000000000000e+0	-4,000000000000000e+0
2,080000000000000e+2	-4,000000000000000e+0	-4,000000000000000e+0	-4,000000000000000e+0
2,090000000000000e+2	-4,000000000000000e+0	-4,000000000000000e+0	-4,000000000000000e+0
2,100000000000000e+2	-4,000000000000000e+0	-4,000000000000000e+0	-4,000000000000000e+0
2,110000000000000e+2	-4,000000000000000e+0	-4,000000000000000e+0	-4,000000000000000e+0
2,120000000000000e+2	-4,000000000000000e+0	-4,000000000000000e+0	-4,000000000000000e+0
2,130000000000000e+2	-4,000000000000000e+0	-4,000000000000000e+0	-4,000000000000000e+0
2,140000000000000e+2	-4,000000000000000e+0	-4,000000000000000e+0	-4,000000000000000e+0
2,150000000000000e+2	-4,000000000000000e+0	-4,000000000000000e+0	-4,000000000000000e+0
2,160000000000000e+2	-4,000000000000000e+0	-4,000000000000000e+0	-4,000000000000000e+0
2,170000000000000e+2	-4,000000000000000e+0	-4,000000000000000e+0	-4,000000000000000e+0
2,180000000000000e+2	-4,000000000000000e+0	-4,000000000000000e+0	-4,000000000000000e+0
2,190000000000000e+2	-4,000000000000000e+0	-4,000000000000000e+0	-4,000000000000000e+0
2,200000000000000e+2	-4,000000000000000e+0	-4,000000000000000e+0	-4,000000000000000e+0
2,210000000000000e+2	-4,000000000000000e+0	-4,000000000000000e+0	-4,000000000000000e+0
2,220000000000000e+2	-4,000000000000000e+0	-4,000000000000000e+0	-4,000000000000000e+0
2,230000000000000e+2	-4,000000000000000e+0	-4,000000000000000e+0	-4,000000000000000e+0
2,240000000000000e+2	-4,000000000000000e+0	-4,000000000000000e+0	-4,000000000000000e+0
2,250000000000000e+2	-4,000000000000000e+0	-4,000000000000000e+0	-4,000000000000000e+0
2,260000000000000e+2	-4,000000000000000e+0	-4,000000000000000e+0	-4,000000000000000e+0
2,270000000000000e+2	-4,000000000000000e+0	-4,000000000000000e+0	-4,000000000000000e+0
2,280000000000000e+2	-4,000000000000000e+0	-4,000000000000000e+0	-4,000000000000000e+0
2,290000000000000e+2	-4,000000000000000e+0	-4,000000000000000e+0	-4,000000000000000e+0
2,300000000000000e+2	-4,000000000000000e+0	-4,000000000000000e+0	-4,000000000000000e+0
2,310000000000000e+2	-4,000000000000000e+0	-4,000000000000000e+0	-4,000000000000000e+0
2,320000000000000e+2	-4,000000000000000e+0	-4,000000000000000e+0	-4,000000000000000e+0
2,330000000000000e+2	-4,000000000000000e+0	-4,000000000000000e+0	-4,000000000000000e+0
2,340000000000000e+2	-4,000000000000000e+0	-4,000000000000000e+0	-4,000000000000000e+0
2,350000000000000e+2	-4,000000000000000e+0	-4,000000000000000e+0	-4,000000000000000e+0
2,360000000000000e+2	-4,000000000000000e+0	-4,000000000000000e+0	-4,000000000000000e+0
2,370000000000000e+2	-4,000000000000000e+0	-4,000000000000000e+0	-4,000000000000000e+0
2,380000000000000e+2	-4,000000000000000e+0	-4,000000000000000e+0	-4,000000000000000e+0
2,390000000000000e+2	-4,000000000000000e+0	-4,000000000000000e+0	-4,000000000000000e+0
2,400000000000000e+2	-4,000000000000000e+0	-4,000000000000000e+0	-4,000000000000000e+0
2,410000000000000e+2	-4,000000000000000e+0	-4,000000000000000e+0	-4,000000000000000e+0
2,420000000000000e+2	-4,000000000000000e+0	-4,000000000000000e+0	-4,000000000000000e+0
2,430000000000000e+2	-4,000000000000000e+0	-4,000000000000000e+0	-4,000000000000000e+0
2,440000000000000e+2	-4,000000000000000e+0	-4,000000000000000e+0	-4,000000000000000e+0
2,450000000000000e+2	-4,000000000000000e+0	-4,000000000000000e+0	-4,000000000000000e+0
2,460000000000000e+2	-4,000000000000000e+0	-4,000000000000000e+0	-4,000000000000000e+0
2,470000000000000e+2	-4,000000000000000e+0	-4,000000000000000e+0	-4,000000000000000e+0
2,480000000000000e+2	-4,000000000000000e+0	-4,000000000000000e+0	-4,000000000000000e+0
2,490000000000000e+2	-4,000000000000000e+0	-4,000000000000000e+0	-4,000000000000000e+0
2,500000000000000e+2	-4,000000000000000e+0	-4,000000000000000e+0	-4,000000000000000e+0
2,510000000000000e+2	-4,000000000000000e+0	-4,000000000000000e+0	-4,000000000000000e+0
2,520000000000000e+2	-4,000000000000000e+0	-4,000000000000000e+0	-4,000000000000000e+0
2,530000000000000e+2	-4,000000000000000e+0	-4,000000000000000e+0	-4,000000000000000e+0
2,540000000000000e+2	-4,000000000000000e+0	-4,000000000000000e+0	-4,000000000000000e+0
2,550000000000000e+2	-4,000000000000000e+0	-4,000000000000000e+0	-4,000000000000000e+0
2,560000000000000e+2	-4,000000000000000e+0	-4,000000000000000e+0	-4,000000000000000e+0
2,570000000000000e+2	-4,000000000000000e+0	-4,000000000000000e+0	-4,000000000000000e+0
2,580000000000000e+2	-4,000000000000000e+0	-4,000000000000000e+0	-4,000000000000000e+0
2,590000000000000e+2	-4,000000000000000e+0	-4,000000000000000e+0	-4,000000000000000e+0
2,600000000000000e+2	-4,000000000000000e+0	-4,000000000000000e+0	-4,000000000000000e+0
2,610000000000000e+2	-4,000000000000000e+0	-4,000000000000000e+0	-4,000000000000000e+0
2,620000000000000e+2	-4,000000000000000e+0	-4,000000000000000e+0	-4,000000000000000e+0
2,630000000000000e+2	-4,000000000000000e+0	-4,000000000000000e+0	-4,000000000000000e+0
2,640000000000000e+2	-4,000000000000000e+0	-4,000000000000000e+0	-4,000000000000000e+0
2,650000000000000e+2	-4,000000000000000e+0	-4,000000000000000e+0	-4,000000000000000e+0
2,660000000000000e+2	-4,000000000000000e+0	-4,000000000000000e+0	-4,000000000000000e+0
2,670000000000000e+2	-4,000000000000000e+0	-4,000000000000000e+0	-4,000000000000000e+0
2,680000000000000e+2	-4,000000000000000e+0	-4,000000000000000e+0	-4,000000000000000e+0
2,690000000000000e+2	-4,000000000000000e+0	-4,000000000000000e+0	-4,000000000000000e+0
2,700000000000000e+2	-4,000000000000000e+0	-4,000000000000000e+0	-4,000000000000000e+0
2,710000000000000e+2	-4,000000000000000e+0	-4,000000000000000e+0	-4,000000000000000e+0
2,720000000000000e+2	-4,000000000000000e+0	-4,000000000000000e+0	-4,000000000000000e+0
2,730000000000000e+2	-4,000000000000000e+0	-4,000000000000000e+0	-4,000000000000000e+0
2,740000000000000e+2	-4,000000000000000e+0	-4,000000000000000e+0	-4,000000000000000e+0
2,750000000000000e+2	-4,000000000000000e+0	-4,000000000000000e+0	-4,000000000000000e+0
2,760000000000000e+2	-4,000000000000000e+0	-4,000000000000000e+0	-4,000000000000000e+0
2,770000000000000e+2	-4,000000000000000e+0	-4,000000000000000e+0	-4,000000000000000e+0
2,780000000000000e+2	-4,000000000000000e+0	-4,000000000000000e+0	-4,000000000000000e+0
2,790000000000000e+2	-4,000000000000000e+0	-4,000000000000000e+0	-4,000000000000000e+0
2,800000000000000e+2	-4,000000000000000e+0	-4,000000000000000e+0	-4,000000000000000e+0
2,810000000000000e+2	-4,000000000000000e+0	-4,000000000000000e+0	-4,000000000000000e+0
2,820000000000000e+2	-4,000000000000000e+0	-4,000000000000000e+0	-4,000000000000000e+0
2,830000000000000e+2	-4,000000000000000e+0	-4,000000000000000e+0	-4,000000000000000e+0
2,840000000000000e+2	-4,000000000000000e+0	-4,000000000000000e+0	-4,000000000000000e+0
2,850000000000000e+2	-4,000000000000000e+0	-4,000000000000000e+0	-4,000000000000000e+0
2,860000000000000e+2	-4,000000000000000e+0	-4,000000000000000e+0	-4,000000000000000e+0
2,870000000000000e+2	-7,611000000000000e-1	-5,714000000000000e-1	1,246500000000000e+0
2,880000000000000e+2	2,040000000000000e-2	4,000000000000000e+0	1,455000000000000e-1
2,890000000000000e+2	4,590000000000000e-2	3,264700000000000e+0	1,048000000000000e-1
2,900000000000000e+2	1,550000000000000e-2	1,221600000000000e+0	6,710000000000001e-2
2,910000000000000e+2	1,880000000000000e-2	7,858000000000000e-1	8,200000000000000e-2
2,920000000000000e+2	1,190000000000000e-2	6,495999999999999e-1	6,610000000000001e-2
2,930000000000000e+2	1,660000000000000e-2	5,363000000000000e-1	6,750000000000001e-2
2,940000000000000e+2	3,340000000000000e-2	4,682000000000000e-1	7,340000000000000e-2
2,950000000000000e+2	4,490000000000000e-2	4,285000000000000e-1	8,990000000000000e-2
2,960000000000000e+2	5,400000000000000e-2	4,190000000000000e-1	9,700000000000000e-2
2,970000000000000e+2	6,170000000000000e-2	4,084000000000000e-1	1,010000000000000e-1
2,980000000000000e+2	6,460000000000001e-2	4,032000000000000e-1	1,030000000000000e-1
2,990000000000000e+2	6,890000000000000e-2	3,966000000000000e-1	1,007000000000000e-1
3,000000000000000e+2	7,020000000000000e-2	3,927000000000000e-1	9,830000000000000e-2
3,010000000000000e+2	7,030000000000000e-2	3,870000000000000e-1	9,530000000000000e-2
3,020000000000000e+2	7,040000000000001e-2	3,802000000000000e-1	9,020000000000000e-2
3,030000000000000e+2	7,210000000000000e-2	3,784000000000000e-1	8,510000000000000e-2
3,040000000000000e+2	7,290000000000000e-2	3,743000000000000e-1	7,840000000000000e-2
3,050000000000000e+2	7,190000000000001e-2	3,728000000000000e-1	7,270000000000000e-2
3,060000000000000e+2	7,370000000000000e-2	3,815000000000000e-1	6,920000000000000e-2
3,070000000000000e+2	7,380000000000000e-2	3,803000000000000e-1	6,619999999999999e-2
3,080000000000000e+2	7,390000000000000e-2	3,736000000000000e-1	6,320000000000001e-2
3,090000000000000e+2	7,370000000000000e-2	3,730000000000000e-1	6,110000000000000e-2
3,100000000000000e+2	7,440000000000000e-2	3,713000000000000e-1	5,750000000000000e-2
3,110000000000000e+2	7,460000000000000e-2	3,676000000000000e-1	5,520000000000000e-2
3,120000000000000e+2	7,160000000000000e-2	3,666000000000000e-1	5,290000000000000e-2
3,130000000000000e+2	7,140000000000001e-2	3,692000000000000e-1	5,220000000000000e-2
3,140000000000000e+2	7,200000099999999e-2	3,674000000000000e-1	5,150000000000000e-2
3,150000000000000e+2	7,020000000000000e-2	3,638000000000000e-1	4,930000000000000e-2
3,160000000000000e+2	6,890000000000000e-2	3,643000000000000e-1	4,850000000000000e-2
3,170000000000000e+2	6,850000000000001e-2	3,643000000000000e-1	4,580000000000000e-2
3,180000000000000e+2	6,980000000000000e-2	3,651000000000000e-1	4,610000000000000e-2
3,190000000000000e+2	7,030000000000000e-2	3,661000000000000e-1	4,610000000000000e-2
3,200000000000000e+2	6,780000000000000e-2	3,658000000000000e-1	4,510000000000000e-2
3,210000000000000e+2	6,740000000000000e-2	3,650000000000000e-1	4,310000000000000e-2
3,220000000000000e+2	6,700000000000000e-2	3,704000000000000e-1	4,300000000000000e-2
3,230000000000000e+2	6,519999999999999e-2	3,709000000000000e-1	4,190000000000000e-2
3,240000000000000e+2	6,610000000000001e-2	3,769000000000000e-1	3,910000000000000e-2
3,250000000000000e+2	6,560000000000001e-2	3,771000000000000e-1	3,860000000000000e-2
3,260000000000000e+2	6,550000000000000e-2	3,793000000000000e-1	3,950000000000000e-2
3,270000000000000e+2	6,430000000000000e-2	3,837000000000000e-1	3,670000000000000e-2
3,280000000000000e+2	6,450000000000000e-2	3,843000000000000e-1	3,580000000000000e-2
3,290000000000000e+2	6,350000000000000e-2	3,851000000000000e-1	3,630000000000000e-2
3,300000000000000e+2	6,390000000000000e-2	3,882000000000000e-1	3,400000000000000e-2
3,310000000000000e+2	6,550000000000000e-2	3,876000000000000e-1	3,480000100000000e-2
3,320000000000000e+2	6,480000000000000e-2	3,913000000000000e-1	3,290000000000000e-2
3,330000000000000e+2	6,569999999999999e-2	3,919000000000000e-1	3,230000000000000e-2
3,340000000000000e+2	6,469999999999999e-2	3,904000000000000e-1	3,140000000000000e-2
3,350000000000000e+2	6,560000000000001e-2	3,901000000000000e-1	3,050000000000000e-2
3,360000000000000e+2	6,820000000000000e-2	3,931000000000000e-1	3,060000000000000e-2
3,370000000000000e+2	6,600000000000000e-2	3,873000000000000e-1	2,930000000000000e-2
3,380000000000000e+2	6,880000000000000e-2	3,905000000000000e-1	2,850000000000000e-2
3,390000000000000e+2	6,780000000000000e-2	3,897000000000000e-1	2,570000000000000e-2
3,400000000000000e+2	7,070000000000000e-2	3,930000000000000e-1	2,570000000000000e-2
3,410000000000000e+2	7,260000000000000e-2	3,917000000000000e-1	2,530000000000000e-2
3,420000000000000e+2	7,460000000000000e-2	3,856000000000000e-1	2,370000000000000e-2
3,430000000000000e+2	7,870000000000000e-2	3,865000000000000e-1	2,580000000000000e-2
3,440000000000000e+2	7,920000000000000e-2	3,839000000000000e-1	2,310000000000000e-2
3,450000000000000e+2	8,000000000000000e-2	3,822000000000000e-1	2,220000000000000e-2
3,460000000000000e+2	8,300000000000000e-2	3,795000000000000e-1	2,260000000000000e-2
3,470000000000000e+2	8,480000000000000e-2	3,775000000000000e-1	2,050000000000000e-2
3,480000000000000e+2	8,710000000000000e-2	3,792000000000000e-1	2,060000000000000e-2
3,490000000000000e+2	9,080000000000000e-2	3,754000000000000e-1	1,900000000000000e-2
3,500000000000000e+2	9,280000000000000e-2	3,734000000000000e-1	1,930000000000000e-2
3,510000000000000e+2	9,590000000000000e-2	3,735000000000000e-1	2,020000000000000e-2
3,520000000000000e+2	9,730000000000000e-2	3,702000000000000e-1	1,760000000000000e-2
3,530000000000000e+2	9,950000000000000e-2	3,684000000000000e-1	1,590000000000000e-2
3,540000000000000e+2	1,032000000000000e-1	3,670000000000000e-1	1,560000000000000e-2
3,550000000000000e+2	1,061000000000000e-1	3,647000000000000e-1	1,530000000000000e-2
3,560000000000000e+2	1,103000000000000e-1	3,654000000000000e-1	1,570000000000000e-2
3,570000000000000e+2	1,135000000000000e-1	3,624000000000000e-1	1,460000000000000e-2
3,580000000000000e+2	1,181000000000000e-1	3,597000000000000e-1	1,400000000000000e-2
3,590000000000000e+2	1,222000000000000e-1	3,613000000000000e-1	1,370000000000000e-2
3,600000000000000e+2	1,295000000000000e-1	3,709000000000000e-1	1,410000000000000e-2
3,610000000000000e+2	1,369000000000000e-1	3,742000000000000e-1	1,380000000000000e-2
3,620000000000000e+2	1,362000000000000e-1	3,675000000000000e-1	1,250000000000000e-2
3,630000000000000e+2	1,405000000000000e-1	3,615000000000000e-1	1,080000000000000e-2
3,640000000000000e+2	1,378000000000000e-1	3,551000000000000e-1	1,230000000000000e-2
3,650000000000000e+2	1,290000000000000e-1	3,425000000000000e-1	8,200000000000000e-3
3,660000000000000e+2	1,211000000000000e-1	3,352000000000000e-1	7,600000000000000e-3
3,670000000000000e+2	1,135000000000000e-1	3,293000000000000e-1	9,700000000000000e-3
3,680000000000000e+2	1,069000000000000e-1	3,191000000000000e-1	1,000000000000000e-2
3,690000000000000e+2	1,015000000000000e-1	3,135000000000000e-1	8,700000000000000e-3
3,700000000000000e+2	9,630000000000000e-2	3,067000000000000e-1	9,900000000000002e-3
3,710000000000000e+2	9,360000000000000e-2	2,996000000000000e-1	8,600000000000000e-3
3,720000000000000e+2	8,830000000000000e-2	2,927000000000000e-1	7,400000000000000e-3
3,730000000000000e+2	8,460000000000000e-2	2,859000000000000e-1	8,100000000000000e-3
3,740000000000000e+2	8,190000000000000e-2	2,778000000000000e-1	6,800000000000000e-3
3,750000000000000e+2	7,910000000000000e-2	2,719000000000000e-1	6,300000000000000e-3
3,760000000000000e+2	7,760000000000000e-2	2,654000000000000e-1	5,400000000000000e-3
3,770000000000000e+2	7,600000000000000e-2	2,581000000000000e-1	5,700000000000000e-3
3,780000000000000e+2	7,420000000000000e-2	2,516000000000000e-1	5,000000000000000e-3
3,790000000000000e+2	7,320000000000000e-2	2,462000000000000e-1	5,200000000000000e-3
3,800000000000000e+2	7,190000000000001e-2	2,387000000000000e-1	4,100000000000000e-3
3,810000000000000e+2	7,110000000000000e-2	2,332000000000000e-1	4,000000000000000e-3
3,820000000000000e+2	7,110000000000000e-2	2,272000000000000e-1	3,600000000000000e-3
3,830000000000000e+2	7,060000000000000e-2	2,204000000000000e-1	3,300000000000000e-3
3,840000000000000e+2	7,070000000000000e-2	2,151000000000000e-1	2,900000000000000e-3
3,850000000000000e+2	7,150000099999999e-2	2,102000000000000e-1	2,900000000000000e-3
3,860000000000000e+2	7,150000099999999e-2	2,043000000000000e-1	2,700000000000000e-3
3,870000000000000e+2	7,120000000000000e-2	1,994000000000000e-1	2,900000000000000e-3
3,880000000000000e+2	7,090000000000001e-2	1,946000000000000e-1	2,400000000000000e-3
3,890000000000000e+2	7,100000099999999e-2	1,900000000000000e-1	2,200000000000000e-3
3,900000000000000e+2	7,080000000000000e-2	1,852000000000000e-1	2,200000000000000e-3
3,910000000000000e+2	7,110000000000000e-2	1,805000000000000e-1	1,800000000000000e-3
3,920000000000000e+2	7,100000099999999e-2	1,762000000000000e-1	1,500000000000000e-3
3,930000000000000e+2	7,160000000000000e-2	1,716000000000000e-1	1,400000000000000e-3
3,940000000000000e+2	7,110000000000000e-2	1,674000000000000e-1	1,600000000000000e-3
3,950000000000000e+2	7,130000000000000e-2	1,629000000000000e-1	1,300000000000000e-3
3,960000000000000e+2	7,130000000000000e-2	1,589000000000000e-1	1,600000000000000e-3
3,970000000000000e+2	7,120000000000000e-2	1,545000000000000e-1	1,500000000000000e-3
3,980000000000000e+2	7,170000000000000e-2	1,507000000000000e-1	1,900000000000000e-3
3,990000000000000e+2	7,170000000000000e-2	1,468000000000000e-1	1,800000000000000e-3
4,000000000000000e+2	7,180000000000000e-2	1,426000000000000e-1	1,600000000000000e-3
4,010000000000000e+2	7,190000000000001e-2	1,389000000000000e-1	1,500000000000000e-3
4,020000000000000e+2	7,220000000000000e-2	1,357000000000000e-1	1,600000000000000e-3
4,030000000000000e+2	7,280000000000000e-2	1,326000000000000e-1	2,200000000000000e-3
4,040000000000000e+2	7,320000000000000e-2	1,295000000000000e-1	1,900000000000000e-3
4,050000000000000e+2	7,330000000000000e-2	1,264000000000000e-1	1,600000000000000e-3
4,060000000000000e+2	7,330000000000000e-2	1,233000000000000e-1	1,700000000000000e-3
4,070000000000000e+2	7,420000000000000e-2	1,213000000000000e-1	1,900000000000000e-3
4,080000000000000e+2	7,470000000000000e-2	1,190000000000000e-1	2,200000000000000e-3
4,090000000000000e+2	7,460000000000000e-2	1,168000000000000e-1	1,800000000000000e-3
4,100000000000000e+2	7,470000000000000e-2	1,153000000000000e-1	1,900000000000000e-3
4,110000000000000e+2	7,460000000000000e-2	1,139000000000000e-1	1,800000000000000e-3
4,120000000000000e+2	7,450000000000000e-2	1,127000000000000e-1	1,900000000000000e-3
4,130000000000000e+2	7,430000000000000e-2	1,110000000000000e-1	2,200000000000000e-3
4,140000000000000e+2	7,360000000000000e-2	1,098000000000000e-1	1,900000000000000e-3
4,150000000000000e+2	7,260000000000000e-2	1,090000000000000e-1	2,100000000000000e-3
4,160000000000000e+2	7,150000099999999e-2	1,080000000000000e-1	2,100000000000000e-3
4,170000000000000e+2	7,020000000000000e-2	1,072000000000000e-1	2,400000000000000e-3
4,180000000000000e+2	6,880000000000000e-2	1,067000000000000e-1	2,700000000000000e-3
4,190000000000000e+2	6,720000099999999e-2	1,061000000000000e-1	2,800000000000000e-3
4,200000000000000e+2	6,540000000000000e-2	1,057000000000000e-1	2,800000000000000e-3
4,210000000000000e+2	6,350000000000000e-2	1,052000000000000e-1	3,100000000000000e-3
4,220000000000000e+2	6,140000000000000e-2	1,050000000000000e-1	2,900000000000000e-3
4,230000000000000e+2	5,930000000000000e-2	1,046000000000000e-1	3,200000000000000e-3
4,240000000000000e+2	5,740000000000000e-2	1,042000000000000e-1	3,500000000000000e-3
4,250000000000000e+2	5,510000000000000e-2	1,037000000000000e-1	3,500000000000000e-3
4,260000000000000e+2	5,320000000000000e-2	1,034000000000000e-1	3,700000000000000e-3
4,270000000000000e+2	5,120000000000000e-2	1,033000000000000e-1	3,900000000000000e-3
4,280000000000000e+2	4,900000000000000e-2	1,029000000000000e-1	4,000000000000000e-3
4,290000000000000e+2	4,720000000000000e-2	1,024000000000000e-1	3,900000000000000e-3
4,300000000000000e+2	4,550000000000000e-2	1,018000000000000e-1	4,200000000000000e-3
4,310000000000000e+2	4,400000000000000e-2	1,013000000000000e-1	4,500000000000000e-3
4,320000000000000e+2	4,240000000000000e-2	1,009000000000000e-1	4,600000000000000e-3
4,330000000000000e+2	4,080000000000000e-2	1,002000000000000e-1	4,700000000000000e-3
4,340000000000000e+2	3,930000000000000e-2	9,970000000000000e-2	4,900000000000000e-3
4,350000000000000e+2	3,800000000000000e-2	9,910000000000000e-2	5,200000000000000e-3
4,360000000000000e+2	3,680000000000000e-2	9,840000000000000e-2	5,600000000000000e-3
4,370000000000000e+2	3,570000000000000e-2	9,770000000000000e-2	5,800000000000000e-3
4,380000000000000e+2	3,450000000000000e-2	9,690000000000000e-2	5,800000000000000e-3
4,390000000000000e+2	3,340000000000000e-2	9,600000000000000e-2	6,100000000000000e-3
4,400000000000000e+2	3,250000000000000e-2	9,540000000000000e-2	6,500000000000000e-3
4,410000000000000e+2	3,160000000000000e-2	9,470000000000000e-2	6,800000000000000e-3
4,420000000000000e+2	3,070000000000000e-2	9,390000000000000e-2	7,200000000000000e-3
4,430000000000000e+2	3,000000000000000e-2	9,300000000000000e-2	7,700000000000000e-3
4,440000000000000e+2	2,920000000000000e-2	9,210000000000000e-2	7,900000000000000e-3
4,450000000000000e+2	2,830000000000000e-2	9,120000000000000e-2	8,200000000000000e-3
4,460000000000000e+2	2,760000000000000e-2	9,020000000000000e-2	8,700000000000000e-3
4,470000000000000e+2	2,700000000000000e-2	8,940000000000000e-2	9,100000000000000e-3
4,480000000000000e+2	2,630000000000000e-2	8,850000000000000e-2	9,599999999999998e-3
4,490000000000000e+2	2,560000000000000e-2	8,760000000000000e-2	1,010000000000000e-2
4,500000000000000e+2	2,490000000000000e-2	8,670000000000000e-2	1,050000000000000e-2
4,510000000000000e+2	2,450000000000000e-2	8,580000000000000e-2	1,110000000000000e-2
4,520000000000000e+2	2,380000000000000e-2	8,490000000000000e-2	1,170000000000000e-2
4,530000000000000e+2	2,310000000000000e-2	8,380000000000000e-2	1,210000000000000e-2
4,540000000000000e+2	2,270000000000000e-2	8,270000000000000e-2	1,280000000000000e-2
4,550000000000000e+2	2,200000000000000e-2	8,190000000000000e-2	1,340000000000000e-2
4,560000000000000e+2	2,140000000000000e-2	8,080000000000000e-2	1,400000000000000e-2
4,570000000000000e+2	2,090000000000000e-2	7,970000000000000e-2	1,460000000000000e-2
4,580000000000000e+2	2,040000000000000e-2	7,880000000000000e-2	1,540000000000000e-2
4,590000000000000e+2	2,000000000000000e-2	7,780000000000000e-2	1,620000000000000e-2
4,600000000000000e+2	1,930000000000000e-2	7,660000000000000e-2	1,690000100000000e-2
4,610000000000000e+2	1,890000000000000e-2	7,560000000000000e-2	1,770000000000000e-2
4,620000000000000e+2	1,850000000000000e-2	7,460000000000000e-2	1,860000000000000e-2
4,630000000000000e+2	1,810000000000000e-2	7,350000000000000e-2	1,950000000000000e-2
4,640000000000000e+2	1,760000000000000e-2	7,260000000000000e-2	2,060000000000000e-2
4,650000000000000e+2	1,720000000000000e-2	7,140000000000001e-2	2,160000000000000e-2
4,660000000000000e+2	1,680000100000000e-2	7,030000000000000e-2	2,280000000000000e-2
4,670000000000000e+2	1,650000000000000e-2	6,940000000000000e-2	2,410000000000000e-2
4,680000000000000e+2	1,590000000000000e-2	6,840000000000000e-2	2,540000000000000e-2
4,690000000000000e+2	1,550000000000000e-2	6,740000000000000e-2	2,700000000000000e-2
4,700000000000000e+2	1,530000000000000e-2	6,650000000000000e-2	2,860000000000000e-2
4,710000000000000e+2	1,500000000000000e-2	6,580000000000000e-2	3,040000000000000e-2
4,720000000000000e+2	1,470000000000000e-2	6,510000000000001e-2	3,240000000000000e-2
4,730000000000000e+2	1,440000000000000e-2	6,430000000000000e-2	3,430000100000000e-2
4,740000000000000e+2	1,420000000000000e-2	6,360000000000000e-2	3,660000000000000e-2
4,750000000000000e+2	1,380000000000000e-2	6,290000000000000e-2	3,880000000000000e-2
4,760000000000000e+2	1,350000000000000e-2	6,250000000000000e-2	4,120000000000000e-2
4,770000000000000e+2	1,340000000000000e-2	6,200000000000000e-2	4,380000000000000e-2
4,780000000000000e+2	1,320000000000000e-2	6,170000000000000e-2	4,650000000000000e-2
4,790000000000000e+2	1,320000000000000e-2	6,130000000000000e-2	4,910000000000000e-2
4,800000000000000e+2	1,290000000000000e-2	6,100000000000000e-2	5,200000000000000e-2
4,810000000000000e+2	1,280000000000000e-2	6,080000000000000e-2	5,490000000000000e-2
4,820000000000000e+2	1,270000000000000e-2	6,060000000000000e-2	5,800000000000000e-2
4,830000000000000e+2	1,260000000000000e-2	6,040000000000000e-2	6,100000000000000e-2
4,840000000000000e+2	1,260000000000000e-2	6,040000000000000e-2	6,430000000000000e-2
4,850000000000000e+2	1,250000000000000e-2	6,040000000000000e-2	6,730000000000000e-2
4,860000000000000e+2	1,240000000000000e-2	6,030000000000000e-2	7,040000000000001e-2
4,870000000000000e+2	1,240000000000000e-2	6,050000000000000e-2	7,370000000000000e-2
4,880000000000000e+2	1,240000000000000e-2	6,060000000000000e-2	7,700000000000000e-2
4,890000000000000e+2	1,240000000000000e-2	6,090000000000000e-2	8,050000000000000e-2
4,900000000000000e+2	1,250000000000000e-2	6,100000000000000e-2	8,400000000000000e-2
4,910000000000000e+2	1,240000000000000e-2	6,130000000000000e-2	8,760000000000000e-2
4,920000000000000e+2	1,230000000000000e-2	6,160000000000000e-2	9,140000000000000e-2
4,930000000000000e+2	1,250000000000000e-2	6,200000000000000e-2	9,510000000000000e-2
4,940000000000000e+2	1,250000000000000e-2	6,240000000000000e-2	9,930000000000000e-2
4,950000000000000e+2	1,250000000000000e-2	6,290000000000000e-2	1,037000000000000e-1
4,960000000000000e+2	1,260000000000000e-2	6,360000000000000e-2	1,084000000000000e-1
4,970000000000000e+2	1,270000000000000e-2	6,410000000000001e-2	1,134000000000000e-1
4,980000000000000e+2	1,270000000000000e-2	6,490000000000000e-2	1,189000000000000e-1
4,990000000000000e+2	1,280000000000000e-2	6,569999999999999e-2	1,247000000000000e-1
5,000000000000000e+2	1,290000000000000e-2	6,650000000000000e-2	1,309000000000000e-1
5,010000000000000e+2	1,290000000000000e-2	6,760000099999999e-2	1,377000000000000e-1
5,020000000000000e+2	1,310000000000000e-2	6,880000000000000e-2	1,450000000000000e-1
5,030000000000000e+2	1,310000000000000e-2	6,990000000000000e-2	1,527000000000000e-1
5,040000000000000e+2	1,330000000000000e-2	7,140000000000001e-2	1,616000000000000e-1
5,050000000000000e+2	1,330000000000000e-2	7,270000000000000e-2	1,702000000000000e-1
5,060000000000000e+2	1,340000000000000e-2	7,420000000000000e-2	1,795000000000000e-1
5,070000000000000e+2	1,350000000000000e-2	7,580000000000000e-2	1,891000000000000e-1
5,080000000000000e+2	1,370000000000000e-2	7,740000000000000e-2	1,989000000000000e-1
5,090000000000000e+2	1,390000000000000e-2	7,900000000000000e-2	2,093000000000000e-1
5,100000000000000e+2	1,400000000000000e-2	8,090000000000000e-2	2,199000000000000e-1
5,110000000000000e+2	1,410000000000000e-2	8,280000000000000e-2	2,305000000000000e-1
5,120000000000000e+2	1,420000000000000e-2	8,470000000000000e-2	2,414000000000000e-1
5,130000000000000e+2	1,450000000000000e-2	8,690000000000000e-2	2,528000000000000e-1
5,140000000000000e+2	1,450000000000000e-2	8,890000000000000e-2	2,643000000000000e-1
5,150000000000000e+2	1,460000000000000e-2	9,100000000000000e-2	2,757000000000000e-1
5,160000000000000e+2	1,470000000000000e-2	9,330000000000000e-2	2,870000000000000e-1
5,170000000000000e+2	1,490000000000000e-2	9,560000000000000e-2	2,980000000000000e-1
5,180000000000000e+2	1,510000000000000e-2	9,800000000000000e-2	3,087000000000000e-1
5,190000000000000e+2	1,520000000000000e-2	1,003000000000000e-1	3,185000000000000e-1
5,200000000000000e+2	1,540000000000000e-2	1,027000000000000e-1	3,280000000000000e-1
5,210000000000000e+2	1,560000000000000e-2	1,051000000000000e-1	3,366000000000000e-1
5,220000000000000e+2	1,570000000000000e-2	1,074000000000000e-1	3,445000100000000e-1
5,230000000000000e+2	1,600000000000000e-2	1,097000000000000e-1	3,516000000000000e-1
5,240000000000000e+2	1,630000000000000e-2	1,121000000000000e-1	3,580000000000000e-1
5,250000000000000e+2	1,650000000000000e-2	1,145000000000000e-1	3,636000000000000e-1
5,260000000000000e+2	1,670000000000000e-2	1,171000000000000e-1	3,685000000000000e-1
5,270000000000000e+2	1,700000000000000e-2	1,195000000000000e-1	3,730000000000000e-1
5,280000000000000e+2	1,730000000000000e-2	1,219000000000000e-1	3,772000000000000e-1
5,290000000000000e+2	1,730000000000000e-2	1,244000000000000e-1	3,811000000000000e-1
5,300000000000000e+2	1,750000000000000e-2	1,271000000000000e-1	3,854000000000000e-1
5,310000000000000e+2	1,790000000000000e-2	1,297000000000000e-1	3,899000000000000e-1
5,320000000000000e+2	1,810000000000000e-2	1,325000000000000e-1	3,953000000000000e-1
5,330000000000000e+2	1,840000000000000e-2	1,356000000000000e-1	4,016000000000000e-1
5,340000000000000e+2	1,870000000000000e-2	1,389000000000000e-1	4,093000000000000e-1
5,350000000000000e+2	1,910000000000000e-2	1,424000000000000e-1	4,184000000000000e-1
5,360000000000000e+2	1,960000000000000e-2	1,462000000000000e-1	4,292000000000000e-1
5,370000000000000e+2	2,010000000000000e-2	1,505000000000000e-1	4,426000000000000e-1
5,380000000000000e+2	2,040000000000000e-2	1,545000000000000e-1	4,568000000000000e-1
5,390000000000000e+2	2,080000000000000e-2	1,587000000000000e-1	4,725000000000000e-1
5,400000000000000e+2	2,130000000000000e-2	1,632000000000000e-1	4,902000000000000e-1
5,410000000000000e+2	2,160000000000000e-2	1,677000000000000e-1	5,091000000000000e-1
5,420000000000000e+2	2,190000000000000e-2	1,725000100000000e-1	5,290000000000000e-1
5,430000000000000e+2	2,240000000000000e-2	1,775000000000000e-1	5,505000000000000e-1
5,440000000000000e+2	2,280000000000000e-2	1,827000000000000e-1	5,729999999999999e-1
5,450000000000000e+2	2,330000000000000e-2	1,877000000000000e-1	5,964000000000001e-1
5,460000000000000e+2	2,360000000000000e-2	1,930000000000000e-1	6,206000000000001e-1
5,470000000000000e+2	2,410000000000000e-2	1,984000000000000e-1	6,453000000000000e-1
5,480000000000000e+2	2,470000000000000e-2	2,036000000000000e-1	6,691000000000000e-1
5,490000000000000e+2	2,510000000000000e-2	2,090000000000000e-1	6,933000000000000e-1
5,500000000000000e+2	2,570000000000000e-2	2,145000000000000e-1	7,174000000000000e-1
5,510000000000000e+2	2,620000000000000e-2	2,200000000000000e-1	7,404000000000000e-1
5,520000000000000e+2	2,670000000000000e-2	2,256000000000000e-1	7,624000000000000e-1
5,530000000000000e+2	2,730000000000000e-2	2,309000000000000e-1	7,833000000000000e-1
5,540000000000000e+2	2,780000000000000e-2	2,363000000000000e-1	8,023000000000000e-1
5,550000000000000e+2	2,830000000000000e-2	2,414000000000000e-1	8,183000000000000e-1
5,560000000000000e+2	2,890000000000000e-2	2,465000000000000e-1	8,312000000000000e-1
5,570000000000000e+2	2,950000000000000e-2	2,515000000000000e-1	8,409000000000000e-1
5,580000000000000e+2	3,010000000000000e-2	2,560000000000000e-1	8,463000000000000e-1
5,590000000000000e+2	3,070000000000000e-2	2,604000000000000e-1	8,476000000000000e-1
5,600000000000000e+2	3,130000000000000e-2	2,646000000000000e-1	8,440000000000000e-1
5,610000000000000e+2	3,180000000000000e-2	2,684000000000000e-1	8,350000000000000e-1
5,620000000000000e+2	3,240000000000000e-2	2,720000000000000e-1	8,198000000000000e-1
5,630000000000000e+2	3,310000000000000e-2	2,754000000000000e-1	7,977000000000000e-1
5,640000000000000e+2	3,370000000000000e-2	2,783000000000000e-1	7,688000000000000e-1
5,650000000000000e+2	3,420000000000000e-2	2,807000000000000e-1	7,339000000000000e-1
5,660000000000000e+2	3,490000000000000e-2	2,828000000000000e-1	6,931000000000001e-1
5,670000000000000e+2	3,560000000000000e-2	2,846000000000000e-1	6,475999999999999e-1
5,680000000000000e+2	3,640000000000000e-2	2,862000000000000e-1	5,976000000000000e-1
5,690000000000000e+2	3,710000000000000e-2	2,879000000000000e-1	5,452000000000000e-1
5,700000000000000e+2	3,780000000000000e-2	2,896000000000000e-1	4,926000000000000e-1
5,710000000000000e+2	3,840000000000000e-2	2,914000000000000e-1	4,415000000000000e-1
5,720000000000000e+2	3,920000000000000e-2	2,937000000000000e-1	3,924000000000000e-1
5,730000000000000e+2	3,990000000000000e-2	2,964000000000000e-1	3,458000000000000e-1
5,740000000000000e+2	4,080000000000000e-2	2,996000000000000e-1	3,029000000000000e-1
5,750000000000000e+2	4,150000000000000e-2	3,033000000000000e-1	2,631000000000000e-1
5,760000000000000e+2	4,230000000000000e-2	3,075000000000000e-1	2,269000000000000e-1
5,770000000000000e+2	4,320000000000000e-2	3,124000000000000e-1	1,946000000000000e-1
5,780000000000000e+2	4,400000000000000e-2	3,173000000000000e-1	1,680000000000000e-1
5,790000000000000e+2	4,480000000000000e-2	3,228000000000000e-1	1,440000000000000e-1
5,800000000000000e+2	4,550000000000000e-2	3,285000000000000e-1	1,233000000000000e-1
5,810000000000000e+2	4,650000000000000e-2	3,345000000000000e-1	1,054000000000000e-1
5,820000000000000e+2	4,750000000000000e-2	3,410000000000000e-1	8,990000000000000e-2
5,830000000000000e+2	4,850000000000000e-2	3,476000000000000e-1	7,650000000000000e-2
5,840000000000000e+2	4,950000000000000e-2	3,543000000000000e-1	6,510000000000001e-2
5,850000000000000e+2	5,060000000000000e-2	3,612000000000000e-1	5,540000000000000e-2
5,860000000000000e+2	5,160000000000000e-2	3,681000000000000e-1	4,730000000000000e-2
5,870000000000000e+2	5,270000000000000e-2	3,750000000000000e-1	4,040000000000000e-2
5,880000000000000e+2	5,380000000000000e-2	3,819000000000000e-1	3,430000100000000e-2
5,890000000000000e+2	5,490000000000000e-2	3,887000000000000e-1	2,930000000000000e-2
5,900000000000000e+2	5,610000000000000e-2	3,956000000000000e-1	2,510000000000000e-2
5,910000000000000e+2	5,740000000000000e-2	4,026000000000000e-1	2,170000000000000e-2
5,920000000000000e+2	5,860000000000000e-2	4,094000000000000e-1	1,880000000000000e-2
5,930000000000000e+2	5,990000000000000e-2	4,162000000000000e-1	1,630000000000000e-2
5,940000000000000e+2	6,120000000000000e-2	4,232000000000000e-1	1,430000000000000e-2
5,950000000000000e+2	6,250000000000000e-2	4,300000000000000e-1	1,260000000000000e-2
5,960000000000000e+2	6,390000000000000e-2	4,367000000000000e-1	1,120000000000000e-2
5,970000000000000e+2	6,530000000000000e-2	4,435000000000000e-1	1,000000000000000e-2
5,980000000000000e+2	6,680000000000000e-2	4,503000000000000e-1	9,000000000000000e-3
5,990000000000000e+2	6,840000000000000e-2	4,574000000000000e-1	8,100000000000000e-3
6,000000000000000e+2	6,990000000000000e-2	4,646000000000000e-1	7,400000000000000e-3
6,010000000000000e+2	7,140000000000001e-2	4,721000000000000e-1	6,800000000000000e-3
6,020000000000000e+2	7,300000000000000e-2	4,797000000000000e-1	6,400000000000000e-3
6,030000000000000e+2	7,460000000000000e-2	4,875000000000000e-1	6,000000000000000e-3
6,040000000000000e+2	7,630000000000000e-2	4,956000000000000e-1	5,600000000000000e-3
6,050000000000000e+2	7,780000000000000e-2	5,038000000000000e-1	5,400000000000000e-3
6,060000000000000e+2	7,950000000000000e-2	5,124999999999999e-1	5,100000000000000e-3
6,070000000000000e+2	8,110000000000000e-2	5,215000000000000e-1	4,900000000000000e-3
6,080000000000000e+2	8,280000000000000e-2	5,313000000000000e-1	4,700000000000000e-3
6,090000000000000e+2	8,450000000000000e-2	5,414000000000000e-1	4,600000000000000e-3
6,100000000000000e+2	8,630000000000000e-2	5,526000000000000e-1	4,500000000000000e-3
6,110000000000000e+2	8,810000000000000e-2	5,644000000000000e-1	4,400000000000000e-3
6,120000000000000e+2	9,000000000000000e-2	5,769999999999999e-1	4,300000000000000e-3
6,130000000000000e+2	9,170000000000000e-2	5,900999999999999e-1	4,200000000000000e-3
6,140000000000000e+2	9,360000000000000e-2	6,045000000000000e-1	4,000000000000000e-3
6,150000000000000e+2	9,540000000000000e-2	6,193000000000000e-1	3,900000000000000e-3
6,160000000000000e+2	9,740000000000000e-2	6,352000000000000e-1	3,900000000000000e-3
6,170000000000000e+2	9,940000000000000e-2	6,529000000000000e-1	3,800000000000000e-3
6,180000000000000e+2	1,012000000000000e-1	6,697999999999999e-1	3,800000000000000e-3
6,190000000000000e+2	1,031000000000000e-1	6,878000000000000e-1	3,700000000000000e-3
6,200000000000000e+2	1,050000000000000e-1	7,071000099999999e-1	3,700000000000000e-3
6,210000000000000e+2	1,070000000000000e-1	7,266000000000000e-1	3,700000000000000e-3
6,220000000000000e+2	1,089000000000000e-1	7,461000000000000e-1	3,600000000000000e-3
6,230000000000000e+2	1,109000000000000e-1	7,676000000000000e-1	3,600000000000000e-3
6,240000000000000e+2	1,130000000000000e-1	7,894000000000000e-1	3,600000000000000e-3
6,250000000000000e+2	1,150000000000000e-1	8,109000000000000e-1	3,600000000000000e-3
6,260000000000000e+2	1,170000000000000e-1	8,329000000000000e-1	3,600000000000000e-3
6,270000000000000e+2	1,189000000000000e-1	8,545000000000000e-1	3,600000000000000e-3
6,280000000000000e+2	1,209000000000000e-1	8,755000000000000e-1	3,600000000000000e-3
6,290000000000000e+2	1,228000000000000e-1	8,965000000000000e-1	3,500000000000000e-3
6,300000000000000e+2	1,249000000000000e-1	9,174000000000000e-1	3,500000000000000e-3
6,310000000000000e+2	1,269000000000000e-1	9,380000000000000e-1	3,500000000000000e-3
6,320000000000000e+2	1,292000000000000e-1	9,579000000000000e-1	3,600000000000000e-3
6,330000000000000e+2	1,312000000000000e-1	9,771000000000000e-1	3,500000000000000e-3
6,340000000000000e+2	1,334000000000000e-1	9,946000000000000e-1	3,600000000000000e-3
6,350000000000000e+2	1,357000000000000e-1	1,011400000000000e+0	3,600000000000000e-3
6,360000000000000e+2	1,378000000000000e-1	1,027200000000000e+0	3,500000000000000e-3
6,370000000000000e+2	1,401000000000000e-1	1,041200000000000e+0	3,500000000000000e-3
6,380000000000000e+2	1,424000000000000e-1	1,053300000000000e+0	3,500000000000000e-3
6,390000000000000e+2	1,448000000000000e-1	1,064200000000000e+0	3,600000000000000e-3
6,400000000000000e+2	1,472000000000000e-1	1,073000000000000e+0	3,600000000000000e-3
6,410000000000000e+2	1,497000000000000e-1	1,079400000000000e+0	3,600000000000000e-3
6,420000000000000e+2	1,523000000000000e-1	1,083900000000000e+0	3,600000000000000e-3
6,430000000000000e+2	1,548000000000000e-1	1,086000000000000e+0	3,600000000000000e-3
6,440000000000000e+2	1,573000000000000e-1	1,085900000000000e+0	3,700000000000000e-3
6,450000000000000e+2	1,600000000000000e-1	1,083700000000000e+0	3,700000000000000e-3
6,460000000000000e+2	1,628000000000000e-1	1,079100000000000e+0	3,700000000000000e-3
6,470000000000000e+2	1,657000000000000e-1	1,072200000000000e+0	3,800000000000000e-3
6,480000000000000e+2	1,686000000000000e-1	1,062900000000000e+0	3,700000000000000e-3
6,490000000000000e+2	1,716000000000000e-1	1,051300000000000e+0	3,700000000000000e-3
6,500000000000000e+2	1,747000000000000e-1	1,037400000000000e+0	3,800000000000000e-3
6,510000000000000e+2	1,778000000000000e-1	1,021100000000000e+0	3,800000000000000e-3
6,520000000000000e+2	1,811000000000000e-1	1,003300000000000e+0	3,800000000000000e-3
6,530000000000000e+2	1,842000000000000e-1	9,842000000000000e-1	3,700000000000000e-3
6,540000000000000e+2	1,876000000000000e-1	9,630000000000000e-1	3,700000000000000e-3
6,550000000000000e+2	1,910000000000000e-1	9,400000000000000e-1	3,700000000000000e-3
6,560000000000000e+2	1,944000000000000e-1	9,149000000000000e-1	3,700000000000000e-3
6,570000000000000e+2	1,979000000000000e-1	8,882000000000000e-1	3,600000000000000e-3
6,580000000000000e+2	2,017000000000000e-1	8,594000000000000e-1	3,600000000000000e-3
6,590000000000000e+2	2,055000000000000e-1	8,297000000000000e-1	3,700000000000000e-3
6,600000000000000e+2	2,094000000000000e-1	7,984000000000000e-1	3,600000000000000e-3
6,610000000000000e+2	2,134000000000000e-1	7,662000000000000e-1	3,600000000000000e-3
6,620000000000000e+2	2,176000000000000e-1	7,323000000000000e-1	3,700000000000000e-3
6,630000000000000e+2	2,217000000000000e-1	6,986000000000000e-1	3,600000000000000e-3
6,640000000000000e+2	2,262000000000000e-1	6,633000000000000e-1	3,500000000000000e-3
6,650000000000000e+2	2,305000000000000e-1	6,290000000000000e-1	3,600000000000000e-3
6,660000000000000e+2	2,348000000000000e-1	5,948000000000000e-1	3,600000000000000e-3
6,670000000000000e+2	2,391000000000000e-1	5,613000000000000e-1	3,500000000000000e-3
6,680000000000000e+2	2,436000000000000e-1	5,275000000000000e-1	3,500000000000000e-3
6,690000000000000e+2	2,482000000000000e-1	4,939000000000000e-1	3,500000000000000e-3
6,700000000000000e+2	2,527000000000000e-1	4,613000000000000e-1	3,500000000000000e-3
6,710000000000000e+2	2,575000000000000e-1	4,296000000000000e-1	3,500000000000000e-3
6,720000000000000e+2	2,623000000000000e-1	3,992000000000000e-1	3,500000000000000e-3
6,730000000000000e+2	2,669000000000000e-1	3,705000000000000e-1	3,400000000000000e-3
6,740000000000000e+2	2,713000000000000e-1	3,437000000000000e-1	3,400000000000000e-3
6,750000000000000e+2	2,759000000000000e-1	3,181000000000000e-1	3,300000000000000e-3
6,760000000000000e+2	2,805000000000000e-1	2,940000000000000e-1	3,300000000000000e-3
6,770000000000000e+2	2,851000000000000e-1	2,707000000000000e-1	3,300000000000000e-3
6,780000000000000e+2	2,897000000000000e-1	2,488000000000000e-1	3,300000000000000e-3
6,790000000000000e+2	2,943000000000000e-1	2,282000000000000e-1	3,200000000000000e-3
6,800000000000000e+2	2,988000000000000e-1	2,090000000000000e-1	3,200000000000000e-3
6,810000000000000e+2	3,034000000000000e-1	1,914000000000000e-1	3,100000000000000e-3
6,820000000000000e+2	3,078000000000000e-1	1,754000000000000e-1	3,100000000000000e-3
6,830000000000000e+2	3,122000000000000e-1	1,603000000000000e-1	3,200000000000000e-3
6,840000000000000e+2	3,164000000000000e-1	1,465000000000000e-1	3,100000000000000e-3
6,850000000000000e+2	3,205000000000000e-1	1,340000000000000e-1	3,100000000000000e-3
6,860000000000000e+2	3,246000000000000e-1	1,226000000000000e-1	3,000000000000000e-3
6,870000000000000e+2	3,285000000000000e-1	1,123000000000000e-1	2,800000000000000e-3
6,880000000000000e+2	3,324000000000000e-1	1,026000000000000e-1	2,800000000000000e-3
6,890000000000000e+2	3,362000000000000e-1	9,390000000000000e-2	2,800000000000000e-3
6,900000000000000e+2	3,397000000000000e-1	8,610000000000000e-2	2,700000000000000e-3
6,910000000000000e+2	3,431000000000000e-1	7,900000000000000e-2	2,700000000000000e-3
6,920000000000000e+2	3,464000000000000e-1	7,260000000000000e-2	2,600000000000000e-3
6,930000000000000e+2	3,496000000000000e-1	6,700000000000000e-2	2,500000000000000e-3
6,940000000000000e+2	3,527000000000000e-1	6,170000000000000e-2	2,500000000000000e-3
6,950000000000000e+2	3,558000000000000e-1	5,700000000000000e-2	2,400000000000000e-3
6,960000000000000e+2	3,586000100000000e-1	5,280000000000000e-2	2,400000000000000e-3
6,970000000000000e+2	3,614000000000000e-1	4,910000000000000e-2	2,400000000000000e-3
6,980000000000000e+2	3,641000000000000e-1	4,570000000000000e-2	2,300000000000000e-3
6,990000000000000e+2	3,667000000000000e-1	4,260000000000000e-2	2,300000000000000e-3
7,000000000000000e+2	3,694000000000000e-1	3,990000000000000e-2	2,300000000000000e-3
7,010000000000000e+2	3,719000000000000e-1	3,740000000000000e-2	2,400000000000000e-3
7,020000000000000e+2	3,744000000000000e-1	3,530000000000000e-2	2,300000000000000e-3
7,030000000000000e+2	3,769000000000000e-1	3,320000000000000e-2	2,300000000000000e-3
7,040000000000000e+2	3,797000000000000e-1	3,130000000000000e-2	2,300000000000000e-3
7,050000000000000e+2	3,826000000000000e-1	2,950000000000000e-2	2,300000000000000e-3
7,060000000000000e+2	3,857000000000000e-1	2,780000000000000e-2	2,200000000000000e-3
7,070000000000000e+2	3,890000000000000e-1	2,620000000000000e-2	2,200000000000000e-3
7,080000000000000e+2	3,924000000000000e-1	2,470000000000000e-2	2,100000000000000e-3
7,090000000000000e+2	3,960000000000000e-1	2,340000000000000e-2	2,200000000000000e-3
7,100000000000000e+2	4,001000000000000e-1	2,220000000000000e-2	2,100000000000000e-3
7,110000000000000e+2	4,046000000000000e-1	2,100000000000000e-2	2,100000000000000e-3
7,120000000000000e+2	4,094000000000000e-1	1,990000000000000e-2	2,000000000000000e-3
7,130000000000000e+2	4,145000000000000e-1	1,900000000000000e-2	2,100000000000000e-3
7,140000000000000e+2	4,202000000000000e-1	1,800000100000000e-2	2,000000000000000e-3
7,150000000000000e+2	4,263000000000000e-1	1,710000000000000e-2	2,000000000000000e-3
7,160000000000000e+2	4,330000000000000e-1	1,640000000000000e-2	2,000000000000000e-3
7,170000000000000e+2	4,403000000000000e-1	1,570000000000000e-2	2,000000000000000e-3
7,180000000000000e+2	4,480000000000000e-1	1,510000000000000e-2	2,000000000000000e-3
7,190000000000000e+2	4,564000000000000e-1	1,450000000000000e-2	2,000000000000000e-3
7,200000000000000e+2	4,655000000000000e-1	1,400000000000000e-2	2,000000000000000e-3
7,210000000000000e+2	4,749000000000000e-1	1,360000000000000e-2	2,000000000000000e-3
7,220000000000000e+2	4,850000000000000e-1	1,310000000000000e-2	2,000000000000000e-3
7,230000000000000e+2	4,960000000000000e-1	1,270000000000000e-2	1,900000000000000e-3
7,240000000000000e+2	5,074999999999999e-1	1,220000000000000e-2	1,900000000000000e-3
7,250000000000000e+2	5,195000000000000e-1	1,190000000000000e-2	1,900000000000000e-3
7,260000000000000e+2	5,326999999999999e-1	1,160000000000000e-2	1,900000000000000e-3
7,270000000000000e+2	5,465000000000000e-1	1,130000000000000e-2	1,900000000000000e-3
7,280000000000000e+2	5,607000000000000e-1	1,100000000000000e-2	1,900000000000000e-3
7,290000000000000e+2	5,758000000000000e-1	1,080000000000000e-2	2,000000000000000e-3
7,300000000000000e+2	5,914000000000000e-1	1,050000000000000e-2	2,000000000000000e-3
7,310000000000000e+2	6,078000000000000e-1	1,020000000000000e-2	1,900000000000000e-3
7,320000000000000e+2	6,252000000000000e-1	9,900000000000002e-3	1,900000000000000e-3
7,330000000000000e+2	6,434000000000000e-1	9,700000000000000e-3	1,900000000000000e-3
7,340000000000000e+2	6,620000000000000e-1	9,500000000000000e-3	1,900000000000000e-3
7,350000000000000e+2	6,818000000000000e-1	9,300000000000000e-3	1,900000000000000e-3
7,360000000000000e+2	7,015000000000000e-1	9,100000000000000e-3	1,900000000000000e-3
7,370000000000000e+2	7,213000000000000e-1	8,900000000000000e-3	1,900000000000000e-3
7,380000000000000e+2	7,419000000000000e-1	8,700000000000000e-3	2,000000000000000e-3
7,390000000000000e+2	7,627000000000000e-1	8,500000000000000e-3	2,100000000000000e-3
7,400000000000000e+2	7,837000000000000e-1	8,300000000000000e-3	2,100000000000000e-3
7,410000000000000e+2	8,060000000000000e-1	8,000000000000000e-3	2,000000000000000e-3
7,420000000000000e+2	8,282000000000000e-1	7,800000000000000e-3	2,000000000000000e-3
7,430000000000000e+2	8,502000000000000e-1	7,700000000000000e-3	2,000000000000000e-3
7,440000000000000e+2	8,728000000000000e-1	7,600000000000000e-3	2,000000000000000e-3
7,450000000000000e+2	8,947000000000000e-1	7,500000000000000e-3	2,100000000000000e-3
7,460000000000000e+2	9,158000000000000e-1	7,400000000000000e-3	2,100000000000000e-3
7,470000000000000e+2	9,369000000000000e-1	7,400000000000000e-3	2,100000000000000e-3
7,480000000000000e+2	9,570000000000000e-1	7,200000000000000e-3	2,200000000000000e-3
7,490000000000000e+2	9,771000000000000e-1	7,000000000000000e-3	2,200000000000000e-3
7,500000000000000e+2	9,966000000000000e-1	6,900000000000000e-3	2,100000000000000e-3
7,510000000000000e+2	1,015900000000000e+0	6,900000000000000e-3	2,100000000000000e-3
7,520000000000000e+2	1,034100000000000e+0	6,800000000000000e-3	2,100000000000000e-3
7,530000000000000e+2	1,051400000000000e+0	6,700000000000000e-3	2,100000000000000e-3
7,540000000000000e+2	1,067800000000000e+0	6,700000000000000e-3	2,200000000000000e-3
7,550000000000000e+2	1,082900000000000e+0	6,800000000000000e-3	2,300000000000000e-3
7,560000000000000e+2	1,096500000000000e+0	6,700000000000000e-3	2,200000000000000e-3
7,570000000000000e+2	1,108200000000000e+0	6,700000000000000e-3	2,200000000000000e-3
7,580000000000000e+2	1,117600000000000e+0	6,600000000000000e-3	2,200000000000000e-3
7,590000000000000e+2	1,125000000000000e+0	6,500000000000000e-3	2,200000000000000e-3
7,600000000000000e+2	1,130300000000000e+0	6,400000000000000e-3	2,200000000000000e-3
7,610000000000000e+2	1,133900000000000e+0	6,300000000000000e-3	2,200000000000000e-3
7,620000000000000e+2	1,134400000000000e+0	6,300000000000000e-3	2,200000000000000e-3
7,630000000000000e+2	1,132300000000000e+0	6,200000000000000e-3	2,300000000000000e-3
7,640000000000000e+2	1,127600000000000e+0	6,100000000000000e-3	2,200000000000000e-3
7,650000000000000e+2	1,120400000000000e+0	6,100000000000000e-3	2,300000000000000e-3
7,660000000000000e+2	1,110900000000000e+0	6,100000000000000e-3	2,300000000000000e-3
7,670000000000000e+2	1,098600000000000e+0	6,000000000000000e-3	2,300000000000000e-3
7,680000000000000e+2	1,083900000000000e+0	5,900000000000000e-3	2,300000000000000e-3
7,690000000000000e+2	1,066900000000000e+0	5,900000000000000e-3	2,300000000000000e-3
7,700000000000000e+2	1,047500000000000e+0	5,800000000000000e-3	2,200000000000000e-3
7,710000000000000e+2	1,025600000000000e+0	5,700000000000000e-3	2,300000000000000e-3
7,720000000000000e+2	1,001400000000000e+0	5,700000000000000e-3	2,300000000000000e-3
7,730000000000000e+2	9,754000000000000e-1	5,600000000000000e-3	2,300000000000000e-3
7,740000000000000e+2	9,481000000000000e-1	5,600000000000000e-3	2,300000000000000e-3
7,750000000000000e+2	9,195000000000000e-1	5,400000000000000e-3	2,300000000000000e-3
7,760000000000000e+2	8,890000000000000e-1	5,300000000000000e-3	2,300000000000000e-3
7,770000000000000e+2	8,568000000000000e-1	5,300000000000000e-3	2,300000000000000e-3
7,780000000000000e+2	8,248000000000000e-1	5,200000000000000e-3	2,300000000000000e-3
7,790000000000000e+2	7,920000000000000e-1	5,100000000000000e-3	2,300000000000000e-3
7,800000000000000e+2	7,575000000000000e-1	5,000000000000000e-3	2,300000000000000e-3
7,810000000000000e+2	7,231000000000000e-1	4,900000000000000e-3	2,300000000000000e-3
7,820000000000000e+2	6,889000099999999e-1	4,799999999999999e-3	2,300000000000000e-3
7,830000000000000e+2	6,546999999999999e-1	4,799999999999999e-3	2,400000000000000e-3
7,840000000000000e+2	6,210000000000000e-1	4,700000000000000e-3	2,400000000000000e-3
7,850000000000000e+2	5,880000000000000e-1	4,600000000000000e-3	2,400000000000000e-3
7,860000000000000e+2	5,552000000000000e-1	4,500000000000000e-3	2,300000000000000e-3
7,870000000000000e+2	5,231000000000000e-1	4,400000000000000e-3	2,300000000000000e-3
7,880000000000000e+2	4,921000000000000e-1	4,300000000000000e-3	2,400000000000000e-3
7,890000000000000e+2	4,617000000000000e-1	4,300000000000000e-3	2,400000000000000e-3
7,900000000000000e+2	4,327000000000000e-1	4,200000000000000e-3	2,400000000000000e-3
7,910000000000000e+2	4,049000000000000e-1	4,200000000000000e-3	2,300000000000000e-3
7,920000000000000e+2	3,780000000000000e-1	4,100000000000000e-3	2,300000000000000e-3
7,930000000000000e+2	3,533000000000000e-1	4,100000000000000e-3	2,300000000000000e-3
7,940000000000000e+2	3,303000000000000e-1	4,000000000000000e-3	2,400000000000000e-3
7,950000000000000e+2	3,080000000000000e-1	3,900000000000000e-3	2,400000000000000e-3
7,960000000000000e+2	2,869000000000000e-1	3,900000000000000e-3	2,400000000000000e-3
7,970000000000000e+2	2,664000000000000e-1	3,800000000000000e-3	2,300000000000000e-3
7,980000000000000e+2	2,466000000000000e-1	3,700000000000000e-3	2,300000000000000e-3
7,990000000000000e+2	2,280000000000000e-1	3,700000000000000e-3	2,400000000000000e-3
8,000000000000000e+2	2,110000000000000e-1	3,700000000000000e-3	2,300000000000000e-3
8,010000000000000e+2	1,950000000000000e-1	3,600000000000000e-3	2,300000000000000e-3
8,020000000000000e+2	1,801000000000000e-1	3,600000000000000e-3	2,300000000000000e-3
8,030000000000000e+2	1,664000000000000e-1	3,600000000000000e-3	2,300000000000000e-3
8,040000000000000e+2	1,537000000000000e-1	3,600000000000000e-3	2,400000000000000e-3
8,050000000000000e+2	1,418000000000000e-1	3,500000000000000e-3	2,300000000000000e-3
8,060000000000000e+2	1,309000000000000e-1	3,500000000000000e-3	2,300000000000000e-3
8,070000000000000e+2	1,206000000000000e-1	3,500000000000000e-3	2,300000000000000e-3
8,080000000000000e+2	1,110000000000000e-1	3,500000000000000e-3	2,300000000000000e-3
8,090000000000000e+2	1,025000000000000e-1	3,400000000000000e-3	2,300000000000000e-3
8,100000000000000e+2	9,450000000000000e-2	3,400000000000000e-3	2,300000000000000e-3
8,110000000000000e+2	8,720000000000000e-2	3,400000000000000e-3	2,300000000000000e-3
8,120000000000000e+2	8,060000000000000e-2	3,400000000000000e-3	2,300000000000000e-3
8,130000000000000e+2	7,440000000000000e-2	3,400000000000000e-3	2,400000000000000e-3
8,140000000000000e+2	6,850000000000001e-2	3,400000000000000e-3	2,300000000000000e-3
8,150000000000000e+2	6,329999999999999e-2	3,400000000000000e-3	2,300000000000000e-3
8,160000000000000e+2	5,830000000000000e-2	3,400000000000000e-3	2,300000000000000e-3
8,170000000000000e+2	5,380000000000000e-2	3,400000000000000e-3	2,300000000000000e-3
8,180000000000000e+2	4,960000000000000e-2	3,400000000000000e-3	2,300000000000000e-3
8,190000000000000e+2	4,570000000000000e-2	3,400000000000000e-3	2,200000000000000e-3
8,200000000000000e+2	4,210000000000000e-2	3,400000000000000e-3	2,300000000000000e-3
8,210000000000000e+2	3,880000000000000e-2	3,400000000000000e-3	2,300000000000000e-3
8,220000000000000e+2	3,550000100000000e-2	3,400000000000000e-3	2,300000000000000e-3
8,230000000000000e+2	3,260000000000000e-2	3,400000000000000e-3	2,300000000000000e-3
8,240000000000000e+2	3,000000000000000e-2	3,500000000000000e-3	2,400000000000000e-3
8,250000000000000e+2	2,750000000000000e-2	3,500000000000000e-3	2,200000000000000e-3
8,260000000000000e+2	2,520000000000000e-2	3,500000000000000e-3	2,200000000000000e-3
8,270000000000000e+2	2,310000000000000e-2	3,600000000000000e-3	2,200000000000000e-3
8,280000000000000e+2	2,110000000000000e-2	3,400000000000000e-3	2,200000000000000e-3
8,290000000000000e+2	1,940000000000000e-2	3,500000000000000e-3	2,200000000000000e-3
8,300000000000000e+2	1,780000000000000e-2	3,500000000000000e-3	2,200000000000000e-3
8,310000000000000e+2	1,630000000000000e-2	3,500000000000000e-3	2,100000000000000e-3
8,320000000000000e+2	1,500000000000000e-2	3,400000000000000e-3	2,100000000000000e-3
8,330000000000000e+2	1,370000000000000e-2	3,400000000000000e-3	2,100000000000000e-3
8,340000000000000e+2	1,250000000000000e-2	3,400000000000000e-3	2,000000000000000e-3
8,350000000000000e+2	1,150000000000000e-2	3,400000000000000e-3	2,000000000000000e-3
8,360000000000000e+2	1,050000000000000e-2	3,400000000000000e-3	1,900000000000000e-3
8,370000000000000e+2	9,700000000000000e-3	3,400000000000000e-3	2,000000000000000e-3
8,380000000000000e+2	8,900000000000000e-3	3,400000000000000e-3	2,000000000000000e-3
8,390000000000000e+2	8,200000000000000e-3	3,400000000000000e-3	2,000000000000000e-3
8,400000000000000e+2	7,600000000000000e-3	3,300000000000000e-3	2,000000000000000e-3
8,410000000000000e+2	7,000000000000000e-3	3,400000000000000e-3	1,900000000000000e-3
8,420000000000000e+2	6,500000000000000e-3	3,400000000000000e-3	1,800000000000000e-3
8,430000000000000e+2	6,000000000000000e-3	3,400000000000000e-3	1,900000000000000e-3
8,440000000000000e+2	5,500000000000000e-3	3,400000000000000e-3	1,900000000000000e-3
8,450000000000000e+2	5,100000000000000e-3	3,400000000000000e-3	1,800000000000000e-3
8,460000000000000e+2	4,700000000000000e-3	3,400000000000000e-3	1,800000000000000e-3
8,470000000000000e+2	4,300000000000000e-3	3,400000000000000e-3	1,800000000000000e-3
8,480000000000000e+2	3,900000000000000e-3	3,400000000000000e-3	1,700000000000000e-3
8,490000000000000e+2	3,600000000000000e-3	3,400000000000000e-3	1,700000000000000e-3
8,500000000000000e+2	3,300000000000000e-3	3,400000000000000e-3	1,700000000000000e-3
8,510000000000000e+2	3,100000000000000e-3	3,400000000000000e-3	1,800000000000000e-3
8,520000000000000e+2	2,800000000000000e-3	3,400000000000000e-3	1,700000000000000e-3
8,530000000000000e+2	2,600000000000000e-3	3,400000000000000e-3	1,600000000000000e-3
8,540000000000000e+2	2,400000000000000e-3	3,400000000000000e-3	1,600000000000000e-3
8,550000000000000e+2	2,100000000000000e-3	3,400000000000000e-3	1,600000000000000e-3
8,560000000000000e+2	1,900000000000000e-3	3,400000000000000e-3	1,600000000000000e-3
8,570000000000000e+2	1,700000000000000e-3	3,300000000000000e-3	1,600000000000000e-3
8,580000000000000e+2	1,600000000000000e-3	3,400000000000000e-3	1,600000000000000e-3
8,590000000000000e+2	1,400000000000000e-3	3,400000000000000e-3	1,600000000000000e-3
8,600000000000000e+2	1,300000000000000e-3	3,400000000000000e-3	1,600000000000000e-3
8,610000000000000e+2	1,200000000000000e-3	3,400000000000000e-3	1,600000000000000e-3
8,620000000000000e+2	1,100000000000000e-3	3,400000000000000e-3	1,500000000000000e-3
8,630000000000000e+2	1,000000000000000e-3	3,500000000000000e-3	1,500000000000000e-3
8,640000000000000e+2	8,000000000000000e-4	3,400000000000000e-3	1,500000000000000e-3
8,650000000000000e+2	8,000000000000000e-4	3,400000000000000e-3	1,400000000000000e-3
8,660000000000000e+2	7,000000000000000e-4	3,400000000000000e-3	1,400000000000000e-3
8,670000000000000e+2	5,999999999999999e-4	3,400000000000000e-3	1,400000000000000e-3
8,680000000000000e+2	5,000000000000000e-4	3,400000000000000e-3	1,400000000000000e-3
8,690000000000000e+2	5,000000000000000e-4	3,500000000000000e-3	1,400000000000000e-3
8,700000000000000e+2	3,000000000000000e-4	3,400000000000000e-3	1,300000000000000e-3
8,710000000000000e+2	4,000000000000000e-4	3,400000000000000e-3	1,300000000000000e-3
8,720000000000000e+2	3,000000000000000e-4	3,500000000000000e-3	1,400000000000000e-3
8,730000000000000e+2	1,000000000000000e-4	3,400000000000000e-3	1,400000000000000e-3
8,740000000000000e+2	1,000000000000000e-4	3,500000000000000e-3	1,300000000000000e-3
8,750000000000000e+2	0,0000000000000000	3,500000000000000e-3	1,200000000000000e-3
8,760000000000000e+2	-1,000000000000000e-4	3,500000000000000e-3	1,200000000000000e-3
8,770000000000000e+2	-2,000000000000000e-4	3,500000000000000e-3	1,200000000000000e-3
8,780000000000000e+2	-3,000000000000000e-4	3,500000000000000e-3	1,100000000000000e-3
8,790000000000000e+2	-3,000000000000000e-4	3,500000000000000e-3	1,100000000000000e-3
8,800000000000000e+2	-5,000000000000000e-4	3,400000000000000e-3	1,000000000000000e-3
8,810000000000000e+2	-5,000000000000000e-4	3,400000000000000e-3	1,000000000000000e-3
8,820000000000000e+2	-5,999999999999999e-4	3,300000000000000e-3	9,000000000000000e-4
8,830000000000000e+2	-5,999999999999999e-4	3,400000000000000e-3	9,000000000000000e-4
8,840000000000000e+2	-8,000000000000000e-4	3,300000000000000e-3	8,000000000000000e-4
8,850000000000000e+2	-9,000000000000000e-4	3,300000000000000e-3	7,000000000000000e-4
8,860000000000000e+2	-9,000000000000000e-4	3,300000000000000e-3	7,000000000000000e-4
8,870000000000000e+2	-1,000000000000000e-3	3,300000000000000e-3	7,000000000000000e-4
8,880000000000000e+2	-1,000000000000000e-3	3,300000000000000e-3	5,999999999999999e-4
8,890000000000000e+2	-1,100000000000000e-3	3,200000000000000e-3	5,999999999999999e-4
8,900000000000000e+2	-1,200000000000000e-3	3,200000000000000e-3	5,000000000000000e-4
8,910000000000000e+2	-1,300000000000000e-3	3,200000000000000e-3	4,000000000000000e-4
8,920000000000000e+2	-1,300000000000000e-3	3,200000000000000e-3	4,000000000000000e-4
8,930000000000000e+2	-1,300000000000000e-3	3,200000000000000e-3	5,000000000000000e-4
8,940000000000000e+2	-1,400000000000000e-3	3,100000000000000e-3	4,000000000000000e-4
8,950000000000000e+2	-1,500000000000000e-3	3,100000000000000e-3	3,000000000000000e-4
8,960000000000000e+2	-1,600000000000000e-3	3,100000000000000e-3	3,000000000000000e-4
8,970000000000000e+2	-1,700000000000000e-3	3,100000000000000e-3	2,000000000000000e-4
8,980000000000000e+2	-1,800000000000000e-3	3,000000000000000e-3	2,000000000000000e-4
8,990000000000000e+2	-2,000000000000000e-3	3,000000000000000e-3	1,000000000000000e-4
9,000000000000000e+2	-2,000000000000000e-3	2,900000000000000e-3	1,000000000000000e-4
