PE UV       SUBTECH     SPECTRUM    ASCII       PEDS        4.00        
   -1
100% or 0 Absorbance Baseline.Correction.Raw.asc
26/09/02
14:47:55.00
26/09/02
14:47:55.00
Analyst

200,000000
1
Lambda 35
502S09021304
PerkinElmer UV WinLab 6.0.2.0723 / Lambda35 1.27

480
0
1
0
0
Both on
0
1
1
None
0
0
0
0
 
 
0
0
0
0
0
 
 
 
0
 
0
326
0
 
0
 
 
 
0
0
0
 
0
 
 
 
0
 
 
0
0
0
0
0
 
 
 
 
0
0
#HDR
-1
-1
#GR
nm
A
1.0
0.0
900,000000
-1,000000
701
8
0,320781
-0,497539
#DATA
900,000000	-0,066743
899,000000	-0,066617
898,000000	-0,066445
897,000000	-0,066300
896,000000	-0,066229
895,000000	-0,066162
894,000000	-0,066106
893,000000	-0,066132
892,000000	-0,066173
891,000000	-0,066098
890,000000	-0,066218
889,000000	-0,066315
888,000000	-0,066430
887,000000	-0,066594
886,000000	-0,066851
885,000000	-0,067086
884,000000	-0,067502
883,000000	-0,067985
882,000000	-0,068442
881,000000	-0,069017
880,000000	-0,069539
879,000000	-0,070079
878,000000	-0,070522
877,000000	-0,070887
876,000000	-0,071260
875,000000	-0,071676
874,000000	-0,072040
873,000000	-0,072404
872,000000	-0,072647
871,000000	-0,072922
870,000000	-0,073234
869,000000	-0,073502
868,000000	-0,073814
867,000000	-0,074048
866,000000	-0,074359
865,000000	-0,074560
864,000000	-0,074890
863,000000	-0,075160
862,000000	-0,075394
861,000000	-0,075558
860,000000	-0,075795
859,000000	-0,076058
858,000000	-0,076254
857,000000	-0,076524
856,000000	-0,076651
855,000000	-0,076837
854,000000	-0,077081
853,000000	-0,077342
852,000000	-0,077539
851,000000	-0,077655
850,000000	-0,077786
849,000000	-0,077971
848,000000	-0,078134
847,000000	-0,078228
846,000000	-0,078424
845,000000	-0,078479
844,000000	-0,078595
843,000000	-0,078765
842,000000	-0,078855
841,000000	-0,078848
840,000000	-0,078979
839,000000	-0,079080
838,000000	-0,079112
837,000000	-0,079087
836,000000	-0,079069
835,000000	-0,079160
834,000000	-0,079199
833,000000	-0,079156
832,000000	-0,079098
831,000000	-0,079065
830,000000	-0,079040
829,000000	-0,078997
828,000000	-0,078921
827,000000	-0,078870
826,000000	-0,078754
825,000000	-0,078660
824,000000	-0,078624
823,000000	-0,078435
822,000000	-0,078392
821,000000	-0,078294
820,000000	-0,078163
819,000000	-0,078007
818,000000	-0,077742
817,000000	-0,077717
816,000000	-0,077546
815,000000	-0,077321
814,000000	-0,077215
813,000000	-0,077033
812,000000	-0,076899
811,000000	-0,076684
810,000000	-0,076469
809,000000	-0,076214
808,000000	-0,076032
807,000000	-0,075853
806,000000	-0,075649
805,000000	-0,075434
804,000000	-0,075218
803,000000	-0,074970
802,000000	-0,074729
801,000000	-0,074476
800,000000	-0,074319
799,000000	-0,074103
798,000000	-0,073847
797,000000	-0,073634
796,000000	-0,073366
795,000000	-0,073238
794,000000	-0,073300
793,000000	-0,073110
792,000000	-0,072801
791,000000	-0,072548
790,000000	-0,072312
789,000000	-0,071963
788,000000	-0,071602
787,000000	-0,071296
786,000000	-0,070965
785,000000	-0,070758
784,000000	-0,070500
783,000000	-0,070352
782,000000	-0,070086
781,000000	-0,069842
780,000000	-0,069624
779,000000	-0,069383
778,000000	-0,069205
777,000000	-0,068957
776,000000	-0,068724
775,000000	-0,068483
774,000000	-0,068305
773,000000	-0,067989
772,000000	-0,067811
771,000000	-0,067599
770,000000	-0,067287
769,000000	-0,067101
768,000000	-0,066795
767,000000	-0,066669
766,000000	-0,066400
765,000000	-0,066181
764,000000	-0,066046
763,000000	-0,065830
762,000000	-0,065651
761,000000	-0,065415
760,000000	-0,065251
759,000000	-0,064993
758,000000	-0,064784
757,000000	-0,064503
756,000000	-0,064304
755,000000	-0,064158
754,000000	-0,063915
753,000000	-0,063652
752,000000	-0,063510
751,000000	-0,063206
750,000000	-0,063071
749,000000	-0,062819
748,000000	-0,062631
747,000000	-0,062364
746,000000	-0,062213
745,000000	-0,061976
744,000000	-0,061788
743,000000	-0,061520
742,000000	-0,061366
741,000000	-0,061155
740,000000	-0,061102
739,000000	-0,060819
738,000000	-0,060705
737,000000	-0,060422
736,000000	-0,060226
735,000000	-0,060074
734,000000	-0,059828
733,000000	-0,059730
732,000000	-0,059541
731,000000	-0,059317
730,000000	-0,059135
729,000000	-0,058972
728,000000	-0,058817
727,000000	-0,058578
726,000000	-0,058399
725,000000	-0,058293
724,000000	-0,058183
723,000000	-0,057951
722,000000	-0,057788
721,000000	-0,057643
720,000000	-0,057461
719,000000	-0,057320
718,000000	-0,057198
717,000000	-0,057057
716,000000	-0,056794
715,000000	-0,056630
714,000000	-0,056554
713,000000	-0,056417
712,000000	-0,056180
711,000000	-0,056016
710,000000	-0,055886
709,000000	-0,055738
708,000000	-0,055592
707,000000	-0,055520
706,000000	-0,055352
705,000000	-0,055172
704,000000	-0,055015
703,000000	-0,054908
702,000000	-0,054759
701,000000	-0,054617
700,000000	-0,054517
699,000000	-0,054372
698,000000	-0,054203
697,000000	-0,054126
696,000000	-0,053962
695,000000	-0,053812
694,000000	-0,053693
693,000000	-0,053566
692,000000	-0,053386
691,000000	-0,053286
690,000000	-0,053067
689,000000	-0,052979
688,000000	-0,052863
687,000000	-0,052667
686,000000	-0,052636
685,000000	-0,052463
684,000000	-0,052271
683,000000	-0,052159
682,000000	-0,051970
681,000000	-0,051889
680,000000	-0,051739
679,000000	-0,051535
678,000000	-0,051392
677,000000	-0,051253
676,000000	-0,051160
675,000000	-0,050948
674,000000	-0,050855
673,000000	-0,050616
672,000000	-0,050461
671,000000	-0,050349
670,000000	-0,050186
669,000000	-0,050059
668,000000	-0,049904
667,000000	-0,049780
666,000000	-0,049625
665,000000	-0,049497
664,000000	-0,049276
663,000000	-0,049214
662,000000	-0,049063
661,000000	-0,048947
660,000000	-0,048954
659,000000	-0,048849
658,000000	-0,048768
657,000000	-0,048609
656,000000	-0,048438
655,000000	-0,048345
654,000000	-0,048251
653,000000	-0,048181
652,000000	-0,048123
651,000000	-0,047730
650,000000	-0,047746
649,000000	-0,047676
648,000000	-0,047567
647,000000	-0,047493
646,000000	-0,047466
645,000000	-0,047470
644,000000	-0,047255
643,000000	-0,047255
642,000000	-0,047135
641,000000	-0,047049
640,000000	-0,047064
639,000000	-0,047010
638,000000	-0,046909
637,000000	-0,046799
636,000000	-0,046721
635,000000	-0,046585
634,000000	-0,046542
633,000000	-0,046503
632,000000	-0,046362
631,000000	-0,046308
630,000000	-0,046163
629,000000	-0,046124
628,000000	-0,046003
627,000000	-0,045866
626,000000	-0,045761
625,000000	-0,045714
624,000000	-0,045581
623,000000	-0,045483
622,000000	-0,045362
621,000000	-0,045249
620,000000	-0,045206
619,000000	-0,044994
618,000000	-0,044869
617,000000	-0,044873
616,000000	-0,044677
615,000000	-0,044555
614,000000	-0,044418
613,000000	-0,044187
612,000000	-0,044112
611,000000	-0,044030
610,000000	-0,043912
609,000000	-0,043716
608,000000	-0,043551
607,000000	-0,043366
606,000000	-0,043170
605,000000	-0,043091
604,000000	-0,042926
603,000000	-0,042646
602,000000	-0,042536
601,000000	-0,042284
600,000000	-0,042083
599,000000	-0,041736
598,000000	-0,041558
597,000000	-0,041286
596,000000	-0,040954
595,000000	-0,040610
594,000000	-0,040191
593,000000	-0,039914
592,000000	-0,039382
591,000000	-0,038874
590,000000	-0,038600
589,000000	-0,038139
588,000000	-0,037566
587,000000	-0,036944
586,000000	-0,036397
585,000000	-0,035942
584,000000	-0,035398
583,000000	-0,034817
582,000000	-0,034488
581,000000	-0,034159
580,000000	-0,033802
579,000000	-0,033436
578,000000	-0,033207
577,000000	-0,032937
576,000000	-0,032764
575,000000	-0,032723
574,000000	-0,032566
573,000000	-0,032510
572,000000	-0,032522
571,000000	-0,032490
570,000000	-0,032506
569,000000	-0,032542
568,000000	-0,032595
567,000000	-0,032615
566,000000	-0,032732
565,000000	-0,032723
564,000000	-0,032776
563,000000	-0,032901
562,000000	-0,032957
561,000000	-0,032949
560,000000	-0,033062
559,000000	-0,033190
558,000000	-0,033355
557,000000	-0,033476
556,000000	-0,033577
555,000000	-0,033585
554,000000	-0,033657
553,000000	-0,033705
552,000000	-0,033842
551,000000	-0,033846
550,000000	-0,033870
549,000000	-0,034018
548,000000	-0,034006
547,000000	-0,033958
546,000000	-0,033958
545,000000	-0,033866
544,000000	-0,033794
543,000000	-0,033713
542,000000	-0,033568
541,000000	-0,033532
540,000000	-0,033416
539,000000	-0,033331
538,000000	-0,033219
537,000000	-0,033090
536,000000	-0,033038
535,000000	-0,032780
534,000000	-0,032687
533,000000	-0,032566
532,000000	-0,032397
531,000000	-0,032385
530,000000	-0,032272
529,000000	-0,032212
528,000000	-0,032038
527,000000	-0,031986
526,000000	-0,031889
525,000000	-0,031764
524,000000	-0,031683
523,000000	-0,031530
522,000000	-0,031408
521,000000	-0,031283
520,000000	-0,031275
519,000000	-0,031081
518,000000	-0,030919
517,000000	-0,030931
516,000000	-0,030814
515,000000	-0,030705
514,000000	-0,030628
513,000000	-0,030523
512,000000	-0,030337
511,000000	-0,030308
510,000000	-0,030195
509,000000	-0,030114
508,000000	-0,029923
507,000000	-0,029887
506,000000	-0,029802
505,000000	-0,029680
504,000000	-0,029514
503,000000	-0,029372
502,000000	-0,029303
501,000000	-0,029225
500,000000	-0,029051
499,000000	-0,028961
498,000000	-0,028913
497,000000	-0,028783
496,000000	-0,028653
495,000000	-0,028559
494,000000	-0,028413
493,000000	-0,028327
492,000000	-0,028181
491,000000	-0,028063
490,000000	-0,027924
489,000000	-0,027802
488,000000	-0,027606
487,000000	-0,027582
486,000000	-0,027431
485,000000	-0,027260
484,000000	-0,027113
483,000000	-0,027015
482,000000	-0,026840
481,000000	-0,026701
480,000000	-0,026562
479,000000	-0,026358
478,000000	-0,026206
477,000000	-0,026014
476,000000	-0,025875
475,000000	-0,025650
474,000000	-0,025478
473,000000	-0,025240
472,000000	-0,025171
471,000000	-0,024974
470,000000	-0,024724
469,000000	-0,024588
468,000000	-0,024432
467,000000	-0,024165
466,000000	-0,024096
465,000000	-0,023824
464,000000	-0,023713
463,000000	-0,023676
462,000000	-0,023442
461,000000	-0,023306
460,000000	-0,023199
459,000000	-0,023051
458,000000	-0,022907
457,000000	-0,022766
456,000000	-0,022614
455,000000	-0,022321
454,000000	-0,022197
453,000000	-0,021888
452,000000	-0,021751
451,000000	-0,021475
450,000000	-0,021222
449,000000	-0,020908
448,000000	-0,020564
447,000000	-0,020150
446,000000	-0,019677
445,000000	-0,019316
444,000000	-0,018904
443,000000	-0,018430
442,000000	-0,018005
441,000000	-0,017764
440,000000	-0,017271
439,000000	-0,016954
438,000000	-0,016774
437,000000	-0,016427
436,000000	-0,016168
435,000000	-0,016055
434,000000	-0,015988
433,000000	-0,015833
432,000000	-0,015691
431,000000	-0,015737
430,000000	-0,015678
429,000000	-0,015687
428,000000	-0,015557
427,000000	-0,015506
426,000000	-0,015473
425,000000	-0,015548
424,000000	-0,015465
423,000000	-0,015402
422,000000	-0,015339
421,000000	-0,015309
420,000000	-0,015263
419,000000	-0,015259
418,000000	-0,015163
417,000000	-0,015112
416,000000	-0,015100
415,000000	-0,014974
414,000000	-0,014970
413,000000	-0,014882
412,000000	-0,014840
411,000000	-0,014697
410,000000	-0,014630
409,000000	-0,014630
408,000000	-0,014504
407,000000	-0,014474
406,000000	-0,014247
405,000000	-0,014243
404,000000	-0,014109
403,000000	-0,013974
402,000000	-0,013915
401,000000	-0,013810
400,000000	-0,013663
399,000000	-0,013642
398,000000	-0,013448
397,000000	-0,013330
396,000000	-0,013334
395,000000	-0,013183
394,000000	-0,013082
393,000000	-0,012947
392,000000	-0,012905
391,000000	-0,012774
390,000000	-0,012660
389,000000	-0,012601
388,000000	-0,012542
387,000000	-0,012420
386,000000	-0,012314
385,000000	-0,012056
384,000000	-0,015150
383,000000	-0,014710
382,000000	-0,014134
381,000000	-0,013840
380,000000	-0,013587
379,000000	-0,013339
378,000000	-0,013288
377,000000	-0,013094
376,000000	-0,012782
375,000000	-0,012909
374,000000	-0,012740
373,000000	-0,012913
372,000000	-0,013170
371,000000	-0,013406
370,000000	-0,013587
369,000000	-0,013928
368,000000	-0,014138
367,000000	-0,014680
366,000000	-0,014605
365,000000	-0,014865
364,000000	-0,014995
363,000000	-0,015213
362,000000	-0,015234
361,000000	-0,015322
360,000000	-0,015427
359,000000	-0,015133
358,000000	-0,015012
357,000000	-0,015133
356,000000	-0,014898
355,000000	-0,014521
354,000000	-0,014285
353,000000	-0,014084
352,000000	-0,013823
351,000000	-0,013558
350,000000	-0,013073
349,000000	-0,012795
348,000000	-0,012521
347,000000	-0,012263
346,000000	-0,011663
345,000000	-0,011465
344,000000	-0,011228
343,000000	-0,010762
342,000000	-0,010821
341,000000	-0,010317
340,000000	-0,010397
339,000000	-0,010135
338,000000	-0,009888
337,000000	-0,009863
336,000000	-0,009544
335,000000	-0,009621
334,000000	-0,009166
333,000000	-0,009187
332,000000	-0,008817
331,000000	-0,008745
330,000000	-0,008915
329,000000	-0,008532
328,000000	-0,010266
327,000000	-0,014877
326,000000	-0,014642
325,000000	-0,014487
324,000000	-0,014285
323,000000	-0,014357
322,000000	-0,013974
321,000000	-0,014134
320,000000	-0,013941
319,000000	-0,013659
318,000000	-0,013873
317,000000	-0,013764
316,000000	-0,013819
315,000000	-0,013751
314,000000	-0,013852
313,000000	-0,013877
312,000000	-0,013705
311,000000	-0,013966
310,000000	-0,014121
309,000000	-0,014323
308,000000	-0,014126
307,000000	-0,014105
306,000000	-0,014365
305,000000	-0,014071
304,000000	-0,014100
303,000000	-0,014193
302,000000	-0,014016
301,000000	-0,013537
300,000000	-0,013911
299,000000	-0,013377
298,000000	-0,012314
297,000000	-0,009387
296,000000	-0,004296
295,000000	0,005546
294,000000	0,020980
293,000000	0,035104
292,000000	0,036288
291,000000	0,020324
290,000000	0,010034
289,000000	0,004545
288,000000	0,007433
287,000000	0,008464
286,000000	0,006246
285,000000	-0,008630
284,000000	-0,034845
283,000000	-0,019395
282,000000	-0,006299
281,000000	-0,028644
280,000000	-0,044622
279,000000	-0,052775
278,000000	-0,056741
277,000000	-0,039624
276,000000	-0,005609
275,000000	-0,010050
274,000000	-0,030810
273,000000	-0,038318
272,000000	0,004102
271,000000	-0,089559
270,000000	0,000665
269,000000	-0,017909
268,000000	-0,152050
267,000000	-0,096496
266,000000	-0,009574
265,000000	0,014152
264,000000	-0,092633
263,000000	-0,052867
262,000000	-0,036281
261,000000	-0,001327
260,000000	-0,040962
259,000000	-0,086403
258,000000	-0,114864
257,000000	-0,125143
256,000000	-0,095678
255,000000	0,015018
254,000000	-0,028840
253,000000	-0,165188
252,000000	-0,166921
251,000000	-0,152533
250,000000	-0,036533
249,000000	-0,121084
248,000000	-0,128616
247,000000	-0,190833
246,000000	-0,079474
245,000000	-0,154229
244,000000	-0,148800
243,000000	-0,223135
242,000000	-0,048993
241,000000	-0,109582
240,000000	-0,041791
239,000000	-0,184569
238,000000	0,044827
237,000000	-0,168975
236,000000	-0,241741
235,000000	0,031046
234,000000	-0,078845
233,000000	-0,243182
232,000000	-0,497539
231,000000	0,320781
230,000000	-0,088299
229,000000	-0,240207
228,000000	-0,047933
227,000000	-0,186654
226,000000	-0,032905
225,000000	-0,077916
224,000000	-0,074901
223,000000	-0,180934
222,000000	-0,180312
221,000000	-0,190816
220,000000	-0,175674
219,000000	-0,173122
218,000000	-0,053662
217,000000	-0,133184
216,000000	-0,297277
215,000000	-0,419134
214,000000	-0,097587
213,000000	0,248275
212,000000	-0,123322
211,000000	0,026166
210,000000	-0,174769
209,000000	-0,180977
208,000000	-0,274084
207,000000	-0,260665
206,000000	-0,315160
205,000000	-0,078025
204,000000	-0,112042
203,000000	-0,223195
202,000000	0,136338
201,000000	-0,375488
200,000000	-0,011968
