PE UV       SUBTECH     SPECTRUM    ASCII       PEDS        4.00        
   -1
DOCI diluido 1_3.Sample.Raw.asc
26/09/02
15:25:28.00
26/09/02
15:25:28.00
Analyst

200,000000
1
Lambda 35
502S09021304
PerkinElmer UV WinLab 6.0.2.0723 / Lambda35 1.27

480
2
1
0
0
Both on
1
1
1
None
0
0
0
0
 
 
0
0
0
0
0
 
 
 
0
 
0
326
0
 
0
 
 
 
0
0
0
 
0
 
 
 
0
 
 
0
0
0
0
0
 
 
 
 
0
0
#HDR
-1
-1
#GR
nm
A
1.0
0.0
900,000000
-1,000000
701
8
10,000000
-0,138035
#DATA
900,000000	0,000034
899,000000	0,000045
898,000000	0,000045
897,000000	-0,000056
896,000000	-0,000000
895,000000	0,000007
894,000000	-0,000056
893,000000	0,000030
892,000000	0,000022
891,000000	0,000037
890,000000	0,000108
889,000000	0,000034
888,000000	0,000026
887,000000	0,000067
886,000000	0,000048
885,000000	0,000108
884,000000	0,000097
883,000000	0,000215
882,000000	0,000160
881,000000	0,000219
880,000000	0,000141
879,000000	0,000222
878,000000	0,000159
877,000000	0,000122
876,000000	0,000140
875,000000	0,000158
874,000000	0,000221
873,000000	0,000302
872,000000	0,000191
871,000000	0,000176
870,000000	0,000172
869,000000	0,000150
868,000000	0,000238
867,000000	0,000245
866,000000	0,000190
865,000000	0,000234
864,000000	0,000307
863,000000	0,000245
862,000000	0,000252
861,000000	0,000201
860,000000	0,000219
859,000000	0,000241
858,000000	0,000219
857,000000	0,000295
856,000000	0,000149
855,000000	0,000175
854,000000	0,000204
853,000000	0,000291
852,000000	0,000273
851,000000	0,000225
850,000000	0,000211
849,000000	0,000189
848,000000	0,000247
847,000000	0,000210
846,000000	0,000218
845,000000	0,000181
844,000000	0,000178
843,000000	0,000268
842,000000	0,000319
841,000000	0,000156
840,000000	0,000261
839,000000	0,000297
838,000000	0,000257
837,000000	0,000221
836,000000	0,000196
835,000000	0,000264
834,000000	0,000329
833,000000	0,000279
832,000000	0,000214
831,000000	0,000250
830,000000	0,000290
829,000000	0,000225
828,000000	0,000250
827,000000	0,000315
826,000000	0,000268
825,000000	0,000275
824,000000	0,000395
823,000000	0,000294
822,000000	0,000323
821,000000	0,000385
820,000000	0,000385
819,000000	0,000428
818,000000	0,000214
817,000000	0,000432
816,000000	0,000360
815,000000	0,000320
814,000000	0,000338
813,000000	0,000422
812,000000	0,000422
811,000000	0,000401
810,000000	0,000390
809,000000	0,000332
808,000000	0,000299
807,000000	0,000314
806,000000	0,000350
805,000000	0,000321
804,000000	0,000329
803,000000	0,000296
802,000000	0,000388
801,000000	0,000209
800,000000	0,000351
799,000000	0,000377
798,000000	0,000268
797,000000	0,000249
796,000000	0,000246
795,000000	0,000268
794,000000	0,000077
793,000000	0,000169
792,000000	0,000081
791,000000	0,000121
790,000000	0,000063
789,000000	0,000232
788,000000	0,000125
787,000000	0,000155
786,000000	0,000092
785,000000	0,000133
784,000000	0,000177
783,000000	0,000129
782,000000	0,000067
781,000000	0,000129
780,000000	0,000070
779,000000	0,000085
778,000000	0,000115
777,000000	0,000156
776,000000	0,000022
775,000000	0,000063
774,000000	0,000148
773,000000	0,000108
772,000000	0,000104
771,000000	0,000056
770,000000	0,000071
769,000000	0,000160
768,000000	0,000007
767,000000	0,000089
766,000000	-0,000041
765,000000	0,000041
764,000000	0,000104
763,000000	0,000015
762,000000	0,000041
761,000000	0,000067
760,000000	0,000052
759,000000	0,000049
758,000000	0,000037
757,000000	-0,000142
756,000000	-0,000022
755,000000	-0,000019
754,000000	0,000030
753,000000	-0,000045
752,000000	0,000034
751,000000	-0,000113
750,000000	-0,000049
749,000000	-0,000060
748,000000	0,000019
747,000000	-0,000105
746,000000	-0,000068
745,000000	-0,000102
744,000000	-0,000121
743,000000	-0,000185
742,000000	-0,000207
741,000000	-0,000106
740,000000	-0,000038
739,000000	-0,000094
738,000000	0,000015
737,000000	-0,000113
736,000000	-0,000076
735,000000	-0,000064
734,000000	-0,000159
733,000000	-0,000087
732,000000	-0,000076
731,000000	-0,000045
730,000000	-0,000129
729,000000	-0,000129
728,000000	-0,000118
727,000000	-0,000159
726,000000	-0,000152
725,000000	-0,000084
724,000000	-0,000099
723,000000	-0,000114
722,000000	-0,000080
721,000000	-0,000164
720,000000	-0,000133
719,000000	-0,000088
718,000000	-0,000034
717,000000	-0,000038
716,000000	-0,000114
715,000000	-0,000118
714,000000	-0,000019
713,000000	0,000004
712,000000	-0,000130
711,000000	-0,000092
710,000000	-0,000095
709,000000	-0,000095
708,000000	-0,000073
707,000000	-0,000015
706,000000	-0,000011
705,000000	-0,000138
704,000000	-0,000122
703,000000	-0,000088
702,000000	-0,000134
701,000000	-0,000088
700,000000	-0,000107
699,000000	-0,000126
698,000000	-0,000169
697,000000	-0,000081
696,000000	-0,000157
695,000000	-0,000150
694,000000	-0,000123
693,000000	-0,000169
692,000000	-0,000142
691,000000	-0,000169
690,000000	-0,000250
689,000000	-0,000219
688,000000	-0,000223
687,000000	-0,000215
686,000000	-0,000135
685,000000	-0,000212
684,000000	-0,000343
683,000000	-0,000420
682,000000	-0,000420
681,000000	-0,000370
680,000000	-0,000405
679,000000	-0,000567
678,000000	-0,000559
677,000000	-0,000625
676,000000	-0,000594
675,000000	-0,000710
674,000000	-0,000706
673,000000	-0,000857
672,000000	-0,000927
671,000000	-0,000916
670,000000	-0,000916
669,000000	-0,001021
668,000000	-0,001036
667,000000	-0,001064
666,000000	-0,001180
665,000000	-0,001219
664,000000	-0,001343
663,000000	-0,001262
662,000000	-0,001414
661,000000	-0,001634
660,000000	-0,001472
659,000000	-0,001499
658,000000	-0,001465
657,000000	-0,001585
656,000000	-0,001628
655,000000	-0,001575
654,000000	-0,001668
653,000000	-0,001471
652,000000	-0,001343
651,000000	-0,001596
650,000000	-0,001464
649,000000	-0,001437
648,000000	-0,001515
647,000000	-0,001508
646,000000	-0,001345
645,000000	-0,001225
644,000000	-0,001350
643,000000	-0,001334
642,000000	-0,001330
641,000000	-0,001300
640,000000	-0,001218
639,000000	-0,001160
638,000000	-0,001012
637,000000	-0,001087
636,000000	-0,001126
635,000000	-0,001013
634,000000	-0,001029
633,000000	-0,001006
632,000000	-0,000994
631,000000	-0,000994
630,000000	-0,001073
629,000000	-0,000975
628,000000	-0,000964
627,000000	-0,001015
626,000000	-0,001007
625,000000	-0,001007
624,000000	-0,001043
623,000000	-0,000949
622,000000	-0,001090
621,000000	-0,001044
620,000000	-0,001036
619,000000	-0,001157
618,000000	-0,001212
617,000000	-0,001076
616,000000	-0,001154
615,000000	-0,001155
614,000000	-0,001155
613,000000	-0,001289
612,000000	-0,001265
611,000000	-0,001230
610,000000	-0,001141
609,000000	-0,001227
608,000000	-0,001212
607,000000	-0,001272
606,000000	-0,001362
605,000000	-0,001253
604,000000	-0,001289
603,000000	-0,001274
602,000000	-0,001188
601,000000	-0,001239
600,000000	-0,001236
599,000000	-0,001339
598,000000	-0,001285
597,000000	-0,001230
596,000000	-0,001227
595,000000	-0,001295
594,000000	-0,001320
593,000000	-0,001242
592,000000	-0,001303
591,000000	-0,001245
590,000000	-0,001198
589,000000	-0,001319
588,000000	-0,001324
587,000000	-0,001175
586,000000	-0,001181
585,000000	-0,001122
584,000000	-0,001211
583,000000	-0,001301
582,000000	-0,001158
581,000000	-0,001151
580,000000	-0,001160
579,000000	-0,001173
578,000000	-0,001169
577,000000	-0,001194
576,000000	-0,001207
575,000000	-0,001050
574,000000	-0,001155
573,000000	-0,001103
572,000000	-0,001103
571,000000	-0,001151
570,000000	-0,001079
569,000000	-0,001139
568,000000	-0,001103
567,000000	-0,001078
566,000000	-0,001034
565,000000	-0,001142
564,000000	-0,001170
563,000000	-0,001033
562,000000	-0,001061
561,000000	-0,001126
560,000000	-0,001049
559,000000	-0,000860
558,000000	-0,000792
557,000000	-0,000787
556,000000	-0,000703
555,000000	-0,000723
554,000000	-0,000851
553,000000	-0,000931
552,000000	-0,000775
551,000000	-0,000815
550,000000	-0,000791
549,000000	-0,000638
548,000000	-0,000558
547,000000	-0,000574
546,000000	-0,000518
545,000000	-0,000454
544,000000	-0,000289
543,000000	-0,000241
542,000000	-0,000105
541,000000	0,000068
540,000000	0,000253
539,000000	0,000515
538,000000	0,000741
537,000000	0,001092
536,000000	0,001455
535,000000	0,001881
534,000000	0,002557
533,000000	0,003179
532,000000	0,003903
531,000000	0,004885
530,000000	0,006045
529,000000	0,007295
528,000000	0,008703
527,000000	0,010606
526,000000	0,012773
525,000000	0,015295
524,000000	0,018319
523,000000	0,021964
522,000000	0,026404
521,000000	0,031692
520,000000	0,038355
519,000000	0,046162
518,000000	0,055929
517,000000	0,068344
516,000000	0,083586
515,000000	0,102483
514,000000	0,126215
513,000000	0,155884
512,000000	0,193178
511,000000	0,240643
510,000000	0,300989
509,000000	0,377403
508,000000	0,471827
507,000000	0,590633
506,000000	0,735799
505,000000	0,912508
504,000000	1,127239
503,000000	1,377997
502,000000	1,659160
501,000000	1,947518
500,000000	2,194630
499,000000	2,354100
498,000000	2,430122
497,000000	2,466490
496,000000	2,475984
495,000000	2,492001
494,000000	2,507275
493,000000	2,516444
492,000000	2,532636
491,000000	2,538104
490,000000	2,556632
489,000000	2,568410
488,000000	2,582002
487,000000	2,591419
486,000000	2,609130
485,000000	2,619020
484,000000	2,623993
483,000000	2,630816
482,000000	2,650263
481,000000	2,657485
480,000000	2,666726
479,000000	2,680005
478,000000	2,689747
477,000000	2,699678
476,000000	2,707812
475,000000	2,701367
474,000000	2,717982
473,000000	2,737439
472,000000	2,746417
471,000000	2,750816
470,000000	2,757552
469,000000	2,759770
468,000000	2,764361
467,000000	2,745412
466,000000	2,771242
465,000000	2,773404
464,000000	2,783164
463,000000	2,790680
462,000000	2,775469
461,000000	2,780268
460,000000	2,792750
459,000000	2,785005
458,000000	2,789910
457,000000	2,805282
456,000000	2,787085
455,000000	2,794434
454,000000	2,786669
453,000000	2,783842
452,000000	2,791303
451,000000	2,766202
450,000000	2,758771
449,000000	2,737607
448,000000	2,719534
447,000000	2,681693
446,000000	2,639466
445,000000	2,579983
444,000000	2,520594
443,000000	2,443242
442,000000	2,370622
441,000000	2,291036
440,000000	2,214498
439,000000	2,132159
438,000000	2,050633
437,000000	1,963349
436,000000	1,883268
435,000000	1,796995
434,000000	1,714958
433,000000	1,632377
432,000000	1,548971
431,000000	1,464775
430,000000	1,382513
429,000000	1,302532
428,000000	1,223796
427,000000	1,147038
426,000000	1,074558
425,000000	1,003767
424,000000	0,935922
423,000000	0,870392
422,000000	0,809269
421,000000	0,752265
420,000000	0,698811
419,000000	0,648892
418,000000	0,603139
417,000000	0,560450
416,000000	0,520903
415,000000	0,483776
414,000000	0,449417
413,000000	0,417208
412,000000	0,387105
411,000000	0,359107
410,000000	0,333117
409,000000	0,309074
408,000000	0,286540
407,000000	0,265388
406,000000	0,245706
405,000000	0,227322
404,000000	0,209935
403,000000	0,193668
402,000000	0,178796
401,000000	0,164987
400,000000	0,152027
399,000000	0,140182
398,000000	0,129219
397,000000	0,119230
396,000000	0,109897
395,000000	0,101280
394,000000	0,093402
393,000000	0,086136
392,000000	0,079544
391,000000	0,073544
390,000000	0,068089
389,000000	0,063192
388,000000	0,058773
387,000000	0,054650
386,000000	0,050997
385,000000	0,047632
384,000000	0,042568
383,000000	0,039816
382,000000	0,037028
381,000000	0,034774
380,000000	0,033057
379,000000	0,031208
378,000000	0,029716
377,000000	0,028203
376,000000	0,026665
375,000000	0,025837
374,000000	0,024342
373,000000	0,023192
372,000000	0,022618
371,000000	0,021666
370,000000	0,020866
369,000000	0,020399
368,000000	0,019900
367,000000	0,019431
366,000000	0,018842
365,000000	0,018739
364,000000	0,018474
363,000000	0,018189
362,000000	0,018097
361,000000	0,018001
360,000000	0,018185
359,000000	0,017773
358,000000	0,017700
357,000000	0,018140
356,000000	0,017774
355,000000	0,017913
354,000000	0,017922
353,000000	0,017887
352,000000	0,017973
351,000000	0,018116
350,000000	0,018290
349,000000	0,018465
348,000000	0,018781
347,000000	0,019096
346,000000	0,019265
345,000000	0,019628
344,000000	0,019886
343,000000	0,020161
342,000000	0,020971
341,000000	0,020943
340,000000	0,021954
339,000000	0,022647
338,000000	0,023215
337,000000	0,024189
336,000000	0,024765
335,000000	0,025512
334,000000	0,026321
333,000000	0,027437
332,000000	0,028182
331,000000	0,028823
330,000000	0,030506
329,000000	0,031362
328,000000	0,032520
327,000000	0,033802
326,000000	0,035417
325,000000	0,037074
324,000000	0,038720
323,000000	0,040555
322,000000	0,042541
321,000000	0,045217
320,000000	0,047846
319,000000	0,051318
318,000000	0,055912
317,000000	0,060938
316,000000	0,067298
315,000000	0,074487
314,000000	0,083576
313,000000	0,093645
312,000000	0,105536
311,000000	0,120332
310,000000	0,137171
309,000000	0,157021
308,000000	0,180704
307,000000	0,208515
306,000000	0,241428
305,000000	0,279087
304,000000	0,318706
303,000000	0,359093
302,000000	0,396177
301,000000	0,426140
300,000000	0,449979
299,000000	0,465873
298,000000	0,477425
297,000000	0,483992
296,000000	0,491464
295,000000	0,496184
294,000000	0,497921
293,000000	0,494206
292,000000	0,491497
291,000000	0,500288
290,000000	0,511543
289,000000	0,518653
288,000000	0,496551
287,000000	0,473879
286,000000	0,444456
285,000000	0,392733
284,000000	0,314702
283,000000	0,269095
282,000000	0,245937
281,000000	0,263886
280,000000	0,264413
279,000000	0,233777
278,000000	0,321885
277,000000	0,200674
276,000000	0,131998
275,000000	0,136165
274,000000	0,263884
273,000000	0,244528
272,000000	0,138958
271,000000	0,324323
270,000000	0,171326
269,000000	0,171900
268,000000	0,240227
267,000000	0,236344
266,000000	0,240914
265,000000	0,148942
264,000000	0,224765
263,000000	0,210751
262,000000	0,186788
261,000000	0,276805
260,000000	0,188001
259,000000	0,357586
258,000000	0,435373
257,000000	0,410595
256,000000	0,117155
255,000000	0,167165
254,000000	0,254790
253,000000	0,252037
252,000000	0,445358
251,000000	0,487252
250,000000	0,162498
249,000000	0,273036
248,000000	0,241640
247,000000	0,406294
246,000000	0,182502
245,000000	0,250759
244,000000	0,421625
243,000000	0,458093
242,000000	0,204336
241,000000	0,262651
240,000000	0,415430
239,000000	0,548423
238,000000	0,407275
237,000000	0,313310
236,000000	0,404601
235,000000	0,220340
234,000000	0,053391
233,000000	0,149823
232,000000	0,698750
231,000000	0,090286
230,000000	0,580794
229,000000	0,502879
228,000000	0,229515
227,000000	0,452807
226,000000	0,174789
225,000000	0,326345
224,000000	0,350223
223,000000	0,686724
222,000000	0,493051
221,000000	0,020267
220,000000	0,316782
219,000000	0,383013
218,000000	0,399081
217,000000	0,219286
216,000000	0,685564
215,000000	0,276169
214,000000	0,422368
213,000000	-0,138035
212,000000	0,682413
211,000000	0,268920
210,000000	0,429132
209,000000	0,315086
208,000000	1,140896
207,000000	0,232029
206,000000	10,000000
205,000000	0,080582
204,000000	0,354942
203,000000	0,341696
202,000000	0,075295
201,000000	0,523258
200,000000	10,000000
