PE UV       SUBTECH     SPECTRUM    ASCII       PEDS        4.00        
   -1
DOCI puro.Sample.Raw.asc
26/09/02
15:20:37.00
26/09/02
15:20:37.00
Analyst

200,000000
1
Lambda 35
502S09021304
PerkinElmer UV WinLab 6.0.2.0723 / Lambda35 1.27

480
2
1
0
0
Both on
1
1
1
None
0
0
0
0
 
 
0
0
0
0
0
 
 
 
0
 
0
326
0
 
0
 
 
 
0
0
0
 
0
 
 
 
0
 
 
0
0
0
0
0
 
 
 
 
0
0
#HDR
-1
-1
#GR
nm
A
1.0
0.0
900,000000
-1,000000
701
8
10,000000
-0,055627
#DATA
900,000000	-0,000063
899,000000	-0,000022
898,000000	-0,000086
897,000000	-0,000045
896,000000	-0,000093
895,000000	-0,000052
894,000000	-0,000011
893,000000	0,000067
892,000000	-0,000022
891,000000	0,000007
890,000000	-0,000011
889,000000	-0,000019
888,000000	0,000037
887,000000	0,000078
886,000000	0,000119
885,000000	0,000011
884,000000	0,000071
883,000000	0,000126
882,000000	0,000115
881,000000	0,000111
880,000000	0,000081
879,000000	0,000026
878,000000	0,000055
877,000000	0,000018
876,000000	0,000088
875,000000	0,000052
874,000000	0,000044
873,000000	0,000092
872,000000	0,000037
871,000000	0,000029
870,000000	0,000026
869,000000	-0,000011
868,000000	0,000070
867,000000	0,000015
866,000000	0,000077
865,000000	0,000011
864,000000	0,000026
863,000000	0,000029
862,000000	0,000040
861,000000	0,000011
860,000000	0,000015
859,000000	-0,000004
858,000000	0,000047
857,000000	0,000073
856,000000	0,000022
855,000000	-0,000058
854,000000	0,000033
853,000000	0,000069
852,000000	0,000073
851,000000	0,000113
850,000000	0,000062
849,000000	0,000065
848,000000	0,000207
847,000000	0,000073
846,000000	0,000185
845,000000	0,000141
844,000000	0,000214
843,000000	0,000221
842,000000	0,000308
841,000000	0,000290
840,000000	0,000333
839,000000	0,000460
838,000000	0,000409
837,000000	0,000388
836,000000	0,000348
835,000000	0,000420
834,000000	0,000500
833,000000	0,000438
832,000000	0,000424
831,000000	0,000478
830,000000	0,000518
829,000000	0,000558
828,000000	0,000576
827,000000	0,000616
826,000000	0,000656
825,000000	0,000540
824,000000	0,000577
823,000000	0,000639
822,000000	0,000762
821,000000	0,000791
820,000000	0,000802
819,000000	0,000748
818,000000	0,000723
817,000000	0,000763
816,000000	0,000811
815,000000	0,000735
814,000000	0,000833
813,000000	0,000859
812,000000	0,000889
811,000000	0,000856
810,000000	0,000860
809,000000	0,000872
808,000000	0,000752
807,000000	0,000788
806,000000	0,000888
805,000000	0,000870
804,000000	0,000819
803,000000	0,000926
802,000000	0,000897
801,000000	0,000908
800,000000	0,000975
799,000000	0,000957
798,000000	0,000961
797,000000	0,001035
796,000000	0,001025
795,000000	0,000995
794,000000	0,000885
793,000000	0,000963
792,000000	0,000827
791,000000	0,000780
790,000000	0,000777
789,000000	0,000803
788,000000	0,000829
787,000000	0,000823
786,000000	0,000783
785,000000	0,000794
784,000000	0,000687
783,000000	0,000791
782,000000	0,000740
781,000000	0,000744
780,000000	0,000785
779,000000	0,000748
778,000000	0,000815
777,000000	0,000868
776,000000	0,000731
775,000000	0,000735
774,000000	0,000724
773,000000	0,000639
772,000000	0,000654
771,000000	0,000569
770,000000	0,000547
769,000000	0,000529
768,000000	0,000428
767,000000	0,000447
766,000000	0,000418
765,000000	0,000437
764,000000	0,000414
763,000000	0,000370
762,000000	0,000407
761,000000	0,000355
760,000000	0,000381
759,000000	0,000273
758,000000	0,000326
757,000000	0,000180
756,000000	0,000236
755,000000	0,000259
754,000000	0,000191
753,000000	0,000139
752,000000	0,000221
751,000000	0,000173
750,000000	0,000225
749,000000	0,000154
748,000000	0,000226
747,000000	0,000128
746,000000	0,000218
745,000000	0,000102
744,000000	0,000158
743,000000	0,000053
742,000000	0,000098
741,000000	0,000132
740,000000	0,000211
739,000000	0,000166
738,000000	0,000189
737,000000	0,000159
736,000000	0,000132
735,000000	0,000208
734,000000	0,000125
733,000000	0,000185
732,000000	0,000170
731,000000	0,000114
730,000000	0,000144
729,000000	0,000038
728,000000	0,000129
727,000000	0,000046
726,000000	-0,000000
725,000000	0,000118
724,000000	0,000160
723,000000	0,000095
722,000000	0,000061
721,000000	0,000103
720,000000	0,000019
719,000000	0,000122
718,000000	0,000164
717,000000	0,000122
716,000000	0,000046
715,000000	0,000027
714,000000	0,000156
713,000000	0,000206
712,000000	0,000107
711,000000	0,000179
710,000000	0,000237
709,000000	0,000160
708,000000	0,000149
707,000000	0,000317
706,000000	0,000321
705,000000	0,000268
704,000000	0,000287
703,000000	0,000310
702,000000	0,000329
701,000000	0,000287
700,000000	0,000471
699,000000	0,000441
698,000000	0,000387
697,000000	0,000418
696,000000	0,000414
695,000000	0,000461
694,000000	0,000472
693,000000	0,000496
692,000000	0,000427
691,000000	0,000400
690,000000	0,000292
689,000000	0,000435
688,000000	0,000385
687,000000	0,000281
686,000000	0,000462
685,000000	0,000358
684,000000	0,000235
683,000000	0,000143
682,000000	0,000100
681,000000	0,000112
680,000000	0,000058
679,000000	-0,000073
678,000000	-0,000089
677,000000	-0,000212
676,000000	-0,000266
675,000000	-0,000301
674,000000	-0,000344
673,000000	-0,000475
672,000000	-0,000510
671,000000	-0,000545
670,000000	-0,000595
669,000000	-0,000681
668,000000	-0,000692
667,000000	-0,000785
666,000000	-0,000755
665,000000	-0,000786
664,000000	-0,000999
663,000000	-0,000879
662,000000	-0,001046
661,000000	-0,001135
660,000000	-0,001162
659,000000	-0,001112
658,000000	-0,001113
657,000000	-0,001159
656,000000	-0,001292
655,000000	-0,001187
654,000000	-0,001246
653,000000	-0,001145
652,000000	-0,000874
651,000000	-0,001181
650,000000	-0,001080
649,000000	-0,001119
648,000000	-0,001089
647,000000	-0,001081
646,000000	-0,000922
645,000000	-0,000891
644,000000	-0,000934
643,000000	-0,000860
642,000000	-0,000821
641,000000	-0,000895
640,000000	-0,000697
639,000000	-0,000674
638,000000	-0,000615
637,000000	-0,000643
636,000000	-0,000616
635,000000	-0,000647
634,000000	-0,000639
633,000000	-0,000558
632,000000	-0,000581
631,000000	-0,000468
630,000000	-0,000566
629,000000	-0,000453
628,000000	-0,000426
627,000000	-0,000539
626,000000	-0,000465
625,000000	-0,000371
624,000000	-0,000418
623,000000	-0,000410
622,000000	-0,000399
621,000000	-0,000325
620,000000	-0,000254
619,000000	-0,000446
618,000000	-0,000450
617,000000	-0,000278
616,000000	-0,000388
615,000000	-0,000349
614,000000	-0,000400
613,000000	-0,000553
612,000000	-0,000463
611,000000	-0,000428
610,000000	-0,000373
609,000000	-0,000463
608,000000	-0,000514
607,000000	-0,000475
606,000000	-0,000468
605,000000	-0,000460
604,000000	-0,000405
603,000000	-0,000460
602,000000	-0,000417
601,000000	-0,000437
600,000000	-0,000418
599,000000	-0,000501
598,000000	-0,000422
597,000000	-0,000407
596,000000	-0,000391
595,000000	-0,000395
594,000000	-0,000514
593,000000	-0,000289
592,000000	-0,000472
591,000000	-0,000441
590,000000	-0,000250
589,000000	-0,000374
588,000000	-0,000438
587,000000	-0,000347
586,000000	-0,000327
585,000000	-0,000300
584,000000	-0,000296
583,000000	-0,000445
582,000000	-0,000197
581,000000	-0,000261
580,000000	-0,000237
579,000000	-0,000310
578,000000	-0,000249
577,000000	-0,000334
576,000000	-0,000310
575,000000	-0,000105
574,000000	-0,000117
573,000000	-0,000274
572,000000	-0,000149
571,000000	-0,000149
570,000000	-0,000145
569,000000	-0,000165
568,000000	-0,000101
567,000000	-0,000165
566,000000	-0,000064
565,000000	-0,000097
564,000000	-0,000169
563,000000	-0,000044
562,000000	-0,000028
561,000000	-0,000089
560,000000	0,000032
559,000000	0,000149
558,000000	0,000257
557,000000	0,000378
556,000000	0,000483
555,000000	0,000467
554,000000	0,000547
553,000000	0,000354
552,000000	0,000502
551,000000	0,000571
550,000000	0,000671
549,000000	0,000860
548,000000	0,000917
547,000000	0,001025
546,000000	0,001211
545,000000	0,001453
544,000000	0,001792
543,000000	0,002058
542,000000	0,002310
541,000000	0,002868
540,000000	0,003342
539,000000	0,004090
538,000000	0,004749
537,000000	0,005793
536,000000	0,006966
535,000000	0,008126
534,000000	0,009641
533,000000	0,011406
532,000000	0,013422
531,000000	0,016066
530,000000	0,019001
529,000000	0,022625
528,000000	0,026823
527,000000	0,031960
526,000000	0,037964
525,000000	0,045126
524,000000	0,053722
523,000000	0,064000
522,000000	0,076322
521,000000	0,091335
520,000000	0,109818
519,000000	0,132186
518,000000	0,159855
517,000000	0,194652
516,000000	0,237793
515,000000	0,291196
514,000000	0,357939
513,000000	0,441523
512,000000	0,546478
511,000000	0,679343
510,000000	0,846555
509,000000	1,056755
508,000000	1,309433
507,000000	1,609436
506,000000	1,930812
505,000000	2,214767
504,000000	2,391024
503,000000	2,464706
502,000000	2,488973
501,000000	2,506781
500,000000	2,519848
499,000000	2,525171
498,000000	2,546039
497,000000	2,556026
496,000000	2,573808
495,000000	2,582955
494,000000	2,597049
493,000000	2,606723
492,000000	2,625060
491,000000	2,630123
490,000000	2,645907
489,000000	2,660446
488,000000	2,675424
487,000000	2,685159
486,000000	2,699052
485,000000	2,707114
484,000000	2,721762
483,000000	2,719519
482,000000	2,734584
481,000000	2,747947
480,000000	2,759390
479,000000	2,771085
478,000000	2,780694
477,000000	2,795565
476,000000	2,792879
475,000000	2,792654
474,000000	2,813290
473,000000	2,823843
472,000000	2,829271
471,000000	2,834642
470,000000	2,845747
469,000000	2,845611
468,000000	2,845455
467,000000	2,839474
466,000000	2,845119
465,000000	2,862456
464,000000	2,853452
463,000000	2,871388
462,000000	2,865079
461,000000	2,867970
460,000000	2,877071
459,000000	2,870762
458,000000	2,883027
457,000000	2,886046
456,000000	2,873395
455,000000	2,895216
454,000000	2,882318
453,000000	2,866552
452,000000	2,872532
451,000000	2,875347
450,000000	2,862860
449,000000	2,900334
448,000000	2,887025
447,000000	2,864814
446,000000	2,864341
445,000000	2,849054
444,000000	2,842813
443,000000	2,819773
442,000000	2,844819
441,000000	2,838787
440,000000	2,838294
439,000000	2,804766
438,000000	2,832083
437,000000	2,823303
436,000000	2,809342
435,000000	2,788168
434,000000	2,801144
433,000000	2,775284
432,000000	2,782695
431,000000	2,753286
430,000000	2,736925
429,000000	2,727885
428,000000	2,681103
427,000000	2,624571
426,000000	2,577722
425,000000	2,498352
424,000000	2,395328
423,000000	2,288674
422,000000	2,155001
421,000000	2,030332
420,000000	1,906022
419,000000	1,783280
418,000000	1,668223
417,000000	1,556777
416,000000	1,451619
415,000000	1,352499
414,000000	1,258714
413,000000	1,170032
412,000000	1,086854
411,000000	1,009388
410,000000	0,936790
409,000000	0,869651
408,000000	0,806762
407,000000	0,747584
406,000000	0,692359
405,000000	0,640651
404,000000	0,591929
403,000000	0,546292
402,000000	0,504363
401,000000	0,465249
400,000000	0,428970
399,000000	0,395531
398,000000	0,364932
397,000000	0,336518
396,000000	0,310069
395,000000	0,285918
394,000000	0,263500
393,000000	0,243068
392,000000	0,224680
391,000000	0,207749
390,000000	0,192610
389,000000	0,178740
388,000000	0,166279
387,000000	0,154894
386,000000	0,144452
385,000000	0,135290
384,000000	0,123223
383,000000	0,116094
382,000000	0,109343
381,000000	0,103386
380,000000	0,097786
379,000000	0,092913
378,000000	0,088761
377,000000	0,084883
376,000000	0,080964
375,000000	0,077543
374,000000	0,074551
373,000000	0,071546
372,000000	0,069132
371,000000	0,066978
370,000000	0,064974
369,000000	0,063067
368,000000	0,061801
367,000000	0,060722
366,000000	0,059350
365,000000	0,058413
364,000000	0,057910
363,000000	0,057362
362,000000	0,057057
361,000000	0,056782
360,000000	0,056447
359,000000	0,056354
358,000000	0,055899
357,000000	0,056011
356,000000	0,055867
355,000000	0,055455
354,000000	0,055311
353,000000	0,055286
352,000000	0,055488
351,000000	0,055706
350,000000	0,055638
349,000000	0,055916
348,000000	0,056473
347,000000	0,056903
346,000000	0,057204
345,000000	0,057864
344,000000	0,058905
343,000000	0,059701
342,000000	0,060778
341,000000	0,061777
340,000000	0,063484
339,000000	0,064902
338,000000	0,066616
337,000000	0,068605
336,000000	0,070490
335,000000	0,072961
334,000000	0,075082
333,000000	0,077318
332,000000	0,079460
331,000000	0,081857
330,000000	0,084988
329,000000	0,088096
328,000000	0,091465
327,000000	0,095334
326,000000	0,099316
325,000000	0,103516
324,000000	0,108231
323,000000	0,113449
322,000000	0,119320
321,000000	0,126933
320,000000	0,134891
319,000000	0,144685
318,000000	0,157428
317,000000	0,171685
316,000000	0,189973
315,000000	0,210978
314,000000	0,236164
313,000000	0,266264
312,000000	0,301123
311,000000	0,341849
310,000000	0,389767
309,000000	0,447344
308,000000	0,513820
307,000000	0,592797
306,000000	0,685517
305,000000	0,789227
304,000000	0,902905
303,000000	1,012546
302,000000	1,112558
301,000000	1,196434
300,000000	1,260175
299,000000	1,291978
298,000000	1,323094
297,000000	1,332694
296,000000	1,348485
295,000000	1,322910
294,000000	1,308218
293,000000	1,210395
292,000000	1,188466
291,000000	1,149408
290,000000	1,210369
289,000000	1,246570
288,000000	1,201227
287,000000	1,015370
286,000000	0,901735
285,000000	0,716285
284,000000	0,549067
283,000000	0,427929
282,000000	0,506433
281,000000	0,366879
280,000000	0,509151
279,000000	0,399900
278,000000	0,398816
277,000000	0,389988
276,000000	0,388997
275,000000	0,240163
274,000000	0,277097
273,000000	0,320265
272,000000	0,372618
271,000000	0,318611
270,000000	0,289463
269,000000	0,427837
268,000000	0,528532
267,000000	0,522732
266,000000	0,260573
265,000000	0,330777
264,000000	0,300613
263,000000	0,461557
262,000000	0,405437
261,000000	0,560182
260,000000	0,307869
259,000000	0,412240
258,000000	0,474085
257,000000	0,584513
256,000000	0,448061
255,000000	0,533687
254,000000	0,255983
253,000000	0,521469
252,000000	0,492143
251,000000	0,243507
250,000000	0,418967
249,000000	0,507157
248,000000	0,638896
247,000000	0,557213
246,000000	0,659403
245,000000	0,539680
244,000000	0,691145
243,000000	0,296895
242,000000	0,427017
241,000000	0,326558
240,000000	0,320905
239,000000	0,336614
238,000000	0,177732
237,000000	0,540913
236,000000	0,583329
235,000000	0,016462
234,000000	0,323480
233,000000	0,631236
232,000000	1,002245
231,000000	-0,024459
230,000000	0,771784
229,000000	0,642622
228,000000	0,247656
227,000000	0,384264
226,000000	0,665623
225,000000	0,775153
224,000000	1,041115
223,000000	0,574778
222,000000	0,688755
221,000000	0,284858
220,000000	0,643340
219,000000	0,460447
218,000000	0,117566
217,000000	0,526470
216,000000	0,640834
215,000000	0,499047
214,000000	0,552267
213,000000	-0,055627
212,000000	0,447315
211,000000	0,195820
210,000000	0,960376
209,000000	0,289629
208,000000	10,000000
207,000000	0,305998
206,000000	0,482747
205,000000	0,540975
204,000000	0,457827
203,000000	0,304494
202,000000	0,127568
201,000000	0,762302
200,000000	10,000000
