PE UV       SUBTECH     SPECTRUM    ASCII       PEDS        4.00        
   -1
DOCI diluido 1_6.Sample.Raw.asc
26/09/02
15:29:39.00
26/09/02
15:29:39.00
Analyst

200,000000
1
Lambda 35
502S09021304
PerkinElmer UV WinLab 6.0.2.0723 / Lambda35 1.27

480
2
1
0
0
Both on
1
1
1
None
0
0
0
0
 
 
0
0
0
0
0
 
 
 
0
 
0
326
0
 
0
 
 
 
0
0
0
 
0
 
 
 
0
 
 
0
0
0
0
0
 
 
 
 
0
0
#HDR
-1
-1
#GR
nm
A
1.0
0.0
900,000000
-1,000000
701
8
2,617635
-0,149024
#DATA
900,000000	0,000977
899,000000	0,000947
898,000000	0,001063
897,000000	0,001000
896,000000	0,000997
895,000000	0,001027
894,000000	0,001001
893,000000	0,001004
892,000000	0,001101
891,000000	0,001016
890,000000	0,001045
889,000000	0,001109
888,000000	0,000851
887,000000	0,000869
886,000000	0,000824
885,000000	0,000767
884,000000	0,000770
883,000000	0,000818
882,000000	0,000795
881,000000	0,000823
880,000000	0,000837
879,000000	0,000777
878,000000	0,000687
877,000000	0,000598
876,000000	0,000542
875,000000	0,000623
874,000000	0,000630
873,000000	0,000618
872,000000	0,000529
871,000000	0,000411
870,000000	0,000441
869,000000	0,000418
868,000000	0,000517
867,000000	0,000473
866,000000	0,000476
865,000000	0,000392
864,000000	0,000450
863,000000	0,000439
862,000000	0,000387
861,000000	0,000325
860,000000	0,000299
859,000000	0,000248
858,000000	0,000219
857,000000	0,000229
856,000000	0,000146
855,000000	0,000149
854,000000	0,000171
853,000000	0,000207
852,000000	0,000243
851,000000	0,000145
850,000000	0,000123
849,000000	0,000091
848,000000	0,000087
847,000000	0,000123
846,000000	0,000239
845,000000	0,000025
844,000000	0,000087
843,000000	0,000185
842,000000	0,000188
841,000000	0,000109
840,000000	0,000163
839,000000	0,000228
838,000000	0,000188
837,000000	0,000170
836,000000	0,000156
835,000000	0,000185
834,000000	0,000282
833,000000	0,000253
832,000000	0,000119
831,000000	0,000148
830,000000	0,000210
829,000000	0,000264
828,000000	0,000196
827,000000	0,000243
826,000000	0,000185
825,000000	0,000145
824,000000	0,000283
823,000000	0,000279
822,000000	0,000225
821,000000	0,000265
820,000000	0,000359
819,000000	0,000283
818,000000	0,000149
817,000000	0,000258
816,000000	0,000247
815,000000	0,000200
814,000000	0,000200
813,000000	0,000277
812,000000	0,000346
811,000000	0,000313
810,000000	0,000255
809,000000	0,000211
808,000000	0,000259
807,000000	0,000277
806,000000	0,000274
805,000000	0,000285
804,000000	0,000314
803,000000	0,000249
802,000000	0,000278
801,000000	0,000256
800,000000	0,000381
799,000000	0,000421
798,000000	0,000385
797,000000	0,000367
796,000000	0,000330
795,000000	0,000404
794,000000	0,000305
793,000000	0,000415
792,000000	0,000412
791,000000	0,000349
790,000000	0,000342
789,000000	0,000490
788,000000	0,000523
787,000000	0,000509
786,000000	0,000546
785,000000	0,000436
784,000000	0,000477
783,000000	0,000591
782,000000	0,000492
781,000000	0,000425
780,000000	0,000463
779,000000	0,000448
778,000000	0,000497
777,000000	0,000430
776,000000	0,000438
775,000000	0,000445
774,000000	0,000423
773,000000	0,000342
772,000000	0,000409
771,000000	0,000402
770,000000	0,000324
769,000000	0,000350
768,000000	0,000276
767,000000	0,000402
766,000000	0,000272
765,000000	0,000328
764,000000	0,000392
763,000000	0,000377
762,000000	0,000310
761,000000	0,000306
760,000000	0,000322
759,000000	0,000281
758,000000	0,000258
757,000000	0,000213
756,000000	0,000221
755,000000	0,000360
754,000000	0,000266
753,000000	0,000210
752,000000	0,000233
751,000000	0,000233
750,000000	0,000323
749,000000	0,000195
748,000000	0,000286
747,000000	0,000218
746,000000	0,000358
745,000000	0,000249
744,000000	0,000279
743,000000	0,000181
742,000000	0,000196
741,000000	0,000196
740,000000	0,000389
739,000000	0,000279
738,000000	0,000329
737,000000	0,000276
736,000000	0,000356
735,000000	0,000303
734,000000	0,000394
733,000000	0,000477
732,000000	0,000447
731,000000	0,000406
730,000000	0,000402
729,000000	0,000425
728,000000	0,000379
727,000000	0,000380
726,000000	0,000349
725,000000	0,000407
724,000000	0,000445
723,000000	0,000399
722,000000	0,000350
721,000000	0,000407
720,000000	0,000308
719,000000	0,000331
718,000000	0,000480
717,000000	0,000442
716,000000	0,000316
715,000000	0,000332
714,000000	0,000397
713,000000	0,000408
712,000000	0,000382
711,000000	0,000286
710,000000	0,000321
709,000000	0,000367
708,000000	0,000264
707,000000	0,000359
706,000000	0,000310
705,000000	0,000203
704,000000	0,000237
703,000000	0,000234
702,000000	0,000222
701,000000	0,000172
700,000000	0,000261
699,000000	0,000149
698,000000	0,000142
697,000000	0,000176
696,000000	0,000157
695,000000	0,000111
694,000000	0,000096
693,000000	0,000104
692,000000	-0,000012
691,000000	-0,000000
690,000000	-0,000104
689,000000	-0,000135
688,000000	-0,000073
687,000000	-0,000169
686,000000	-0,000035
685,000000	-0,000173
684,000000	-0,000243
683,000000	-0,000385
682,000000	-0,000393
681,000000	-0,000401
680,000000	-0,000408
679,000000	-0,000636
678,000000	-0,000582
677,000000	-0,000702
676,000000	-0,000625
675,000000	-0,000698
674,000000	-0,000699
673,000000	-0,000784
672,000000	-0,000935
671,000000	-0,001043
670,000000	-0,000982
669,000000	-0,001024
668,000000	-0,001087
667,000000	-0,001110
666,000000	-0,001161
665,000000	-0,001169
664,000000	-0,001285
663,000000	-0,001270
662,000000	-0,001464
661,000000	-0,001592
660,000000	-0,001460
659,000000	-0,001426
658,000000	-0,001469
657,000000	-0,001500
656,000000	-0,001524
655,000000	-0,001520
654,000000	-0,001559
653,000000	-0,001478
652,000000	-0,001145
651,000000	-0,001515
650,000000	-0,001414
649,000000	-0,001309
648,000000	-0,001415
647,000000	-0,001403
646,000000	-0,001283
645,000000	-0,001213
644,000000	-0,001287
643,000000	-0,001198
642,000000	-0,001280
641,000000	-0,001214
640,000000	-0,001121
639,000000	-0,001094
638,000000	-0,001125
637,000000	-0,001125
636,000000	-0,001149
635,000000	-0,001165
634,000000	-0,001157
633,000000	-0,001056
632,000000	-0,001056
631,000000	-0,000944
630,000000	-0,001131
629,000000	-0,001045
628,000000	-0,001057
627,000000	-0,001093
626,000000	-0,001062
625,000000	-0,000996
624,000000	-0,001109
623,000000	-0,001113
622,000000	-0,001090
621,000000	-0,001098
620,000000	-0,001032
619,000000	-0,001138
618,000000	-0,001142
617,000000	-0,001091
616,000000	-0,001143
615,000000	-0,001190
614,000000	-0,001179
613,000000	-0,001285
612,000000	-0,001289
611,000000	-0,001266
610,000000	-0,001203
609,000000	-0,001267
608,000000	-0,001330
607,000000	-0,001401
606,000000	-0,001429
605,000000	-0,001343
604,000000	-0,001371
603,000000	-0,001489
602,000000	-0,001474
601,000000	-0,001538
600,000000	-0,001460
599,000000	-0,001579
598,000000	-0,001438
597,000000	-0,001506
596,000000	-0,001562
595,000000	-0,001556
594,000000	-0,001604
593,000000	-0,001455
592,000000	-0,001623
591,000000	-0,001673
590,000000	-0,001594
589,000000	-0,001640
588,000000	-0,001670
587,000000	-0,001620
586,000000	-0,001599
585,000000	-0,001560
584,000000	-0,001646
583,000000	-0,001728
582,000000	-0,001594
581,000000	-0,001471
580,000000	-0,001616
579,000000	-0,001646
578,000000	-0,001546
577,000000	-0,001627
576,000000	-0,001620
575,000000	-0,001520
574,000000	-0,001613
573,000000	-0,001677
572,000000	-0,001565
571,000000	-0,001673
570,000000	-0,001593
569,000000	-0,001581
568,000000	-0,001564
567,000000	-0,001588
566,000000	-0,001544
565,000000	-0,001688
564,000000	-0,001584
563,000000	-0,001603
562,000000	-0,001579
561,000000	-0,001696
560,000000	-0,001603
559,000000	-0,001470
558,000000	-0,001441
557,000000	-0,001425
556,000000	-0,001369
555,000000	-0,001457
554,000000	-0,001625
553,000000	-0,001564
552,000000	-0,001496
551,000000	-0,001476
550,000000	-0,001508
549,000000	-0,001375
548,000000	-0,001459
547,000000	-0,001399
546,000000	-0,001311
545,000000	-0,001316
544,000000	-0,001244
543,000000	-0,001220
542,000000	-0,001180
541,000000	-0,001048
540,000000	-0,000980
539,000000	-0,000780
538,000000	-0,000679
537,000000	-0,000531
536,000000	-0,000282
535,000000	-0,000278
534,000000	0,000262
533,000000	0,000589
532,000000	0,000839
531,000000	0,001340
530,000000	0,001984
529,000000	0,002674
528,000000	0,003300
527,000000	0,004314
526,000000	0,005466
525,000000	0,006659
524,000000	0,008151
523,000000	0,010051
522,000000	0,012205
521,000000	0,014814
520,000000	0,018172
519,000000	0,022038
518,000000	0,026903
517,000000	0,033060
516,000000	0,040502
515,000000	0,049975
514,000000	0,061706
513,000000	0,076343
512,000000	0,094693
511,000000	0,118214
510,000000	0,147949
509,000000	0,185761
508,000000	0,232545
507,000000	0,291622
506,000000	0,363846
505,000000	0,452740
504,000000	0,561965
503,000000	0,693252
502,000000	0,850239
501,000000	1,034600
500,000000	1,246148
499,000000	1,479345
498,000000	1,727449
497,000000	1,965074
496,000000	2,161775
495,000000	2,299394
494,000000	2,381030
493,000000	2,431730
492,000000	2,452993
491,000000	2,469354
490,000000	2,487595
489,000000	2,500172
488,000000	2,507778
487,000000	2,523791
486,000000	2,537473
485,000000	2,547253
484,000000	2,555821
483,000000	2,561632
482,000000	2,576590
481,000000	2,585792
480,000000	2,596810
479,000000	2,601476
478,000000	2,609566
477,000000	2,614394
476,000000	2,617635
475,000000	2,612350
474,000000	2,605522
473,000000	2,593877
472,000000	2,592201
471,000000	2,584065
470,000000	2,576017
469,000000	2,568222
468,000000	2,559049
467,000000	2,549949
466,000000	2,554274
465,000000	2,561426
464,000000	2,550957
463,000000	2,555329
462,000000	2,549226
461,000000	2,537585
460,000000	2,523512
459,000000	2,491572
458,000000	2,477599
457,000000	2,436179
456,000000	2,393204
455,000000	2,336579
454,000000	2,273234
453,000000	2,197762
452,000000	2,112731
451,000000	2,021041
450,000000	1,934151
449,000000	1,837923
448,000000	1,746638
447,000000	1,656726
446,000000	1,571280
445,000000	1,488732
444,000000	1,412308
443,000000	1,339457
442,000000	1,273009
441,000000	1,211651
440,000000	1,153235
439,000000	1,098609
438,000000	1,048011
437,000000	0,998351
436,000000	0,950551
435,000000	0,904188
434,000000	0,859469
433,000000	0,814518
432,000000	0,770524
431,000000	0,727152
430,000000	0,685102
429,000000	0,644028
428,000000	0,604190
427,000000	0,565720
426,000000	0,529000
425,000000	0,493874
424,000000	0,460092
423,000000	0,427780
422,000000	0,397333
421,000000	0,369288
420,000000	0,342916
419,000000	0,318283
418,000000	0,295649
417,000000	0,274623
416,000000	0,255168
415,000000	0,236808
414,000000	0,219841
413,000000	0,204078
412,000000	0,189271
411,000000	0,175464
410,000000	0,162675
409,000000	0,150837
408,000000	0,139842
407,000000	0,129588
406,000000	0,119776
405,000000	0,110725
404,000000	0,102062
403,000000	0,094190
402,000000	0,087002
401,000000	0,080065
400,000000	0,073749
399,000000	0,068001
398,000000	0,062563
397,000000	0,057498
396,000000	0,053035
395,000000	0,048933
394,000000	0,044991
393,000000	0,041453
392,000000	0,038209
391,000000	0,035284
390,000000	0,032639
389,000000	0,030199
388,000000	0,028001
387,000000	0,025970
386,000000	0,024179
385,000000	0,022553
384,000000	0,019287
383,000000	0,018102
382,000000	0,016704
381,000000	0,015223
380,000000	0,014504
379,000000	0,013482
378,000000	0,012880
377,000000	0,012071
376,000000	0,011382
375,000000	0,010821
374,000000	0,010125
373,000000	0,009806
372,000000	0,009167
371,000000	0,008883
370,000000	0,008480
369,000000	0,008091
368,000000	0,007762
367,000000	0,007851
366,000000	0,007369
365,000000	0,007249
364,000000	0,006914
363,000000	0,007171
362,000000	0,006923
361,000000	0,006948
360,000000	0,006912
359,000000	0,006848
358,000000	0,006739
357,000000	0,007130
356,000000	0,006899
355,000000	0,006709
354,000000	0,006721
353,000000	0,006686
352,000000	0,006972
351,000000	0,006912
350,000000	0,006851
349,000000	0,007070
348,000000	0,007358
347,000000	0,007714
346,000000	0,007432
345,000000	0,007655
344,000000	0,008069
343,000000	0,007879
342,000000	0,008547
341,000000	0,008748
340,000000	0,009192
339,000000	0,009358
338,000000	0,009940
337,000000	0,010228
336,000000	0,010557
335,000000	0,011157
334,000000	0,011247
333,000000	0,012308
332,000000	0,012196
331,000000	0,012518
330,000000	0,013319
329,000000	0,013722
328,000000	0,014587
327,000000	0,014916
326,000000	0,015490
325,000000	0,016638
324,000000	0,017375
323,000000	0,018327
322,000000	0,018927
321,000000	0,020570
320,000000	0,022134
319,000000	0,023524
318,000000	0,025823
317,000000	0,028486
316,000000	0,031602
315,000000	0,035023
314,000000	0,039317
313,000000	0,044662
312,000000	0,050191
311,000000	0,057087
310,000000	0,065576
309,000000	0,075463
308,000000	0,086329
307,000000	0,100322
306,000000	0,116722
305,000000	0,133955
304,000000	0,153996
303,000000	0,174080
302,000000	0,192182
301,000000	0,207011
300,000000	0,219075
299,000000	0,226044
298,000000	0,231896
297,000000	0,235864
296,000000	0,239119
295,000000	0,243051
294,000000	0,243269
293,000000	0,240866
292,000000	0,237075
291,000000	0,250009
290,000000	0,253052
289,000000	0,254461
288,000000	0,254032
287,000000	0,242806
286,000000	0,223955
285,000000	0,217466
284,000000	0,210329
283,000000	0,121663
282,000000	0,115336
281,000000	0,138923
280,000000	0,105357
279,000000	0,157706
278,000000	0,158082
277,000000	0,117241
276,000000	0,089303
275,000000	0,093080
274,000000	0,104802
273,000000	0,102665
272,000000	0,081846
271,000000	0,235605
270,000000	0,018192
269,000000	0,081059
268,000000	0,227135
267,000000	0,175023
266,000000	0,160032
265,000000	0,065704
264,000000	0,175259
263,000000	0,152669
262,000000	0,089201
261,000000	0,120508
260,000000	0,166353
259,000000	0,153650
258,000000	0,087433
257,000000	0,301551
256,000000	0,110324
255,000000	0,052777
254,000000	0,061292
253,000000	0,173399
252,000000	0,330407
251,000000	0,128080
250,000000	0,235109
249,000000	0,161241
248,000000	0,358161
247,000000	0,369116
246,000000	0,054788
245,000000	0,307416
244,000000	0,245867
243,000000	0,229518
242,000000	0,123207
241,000000	0,279976
240,000000	0,180765
239,000000	0,266927
238,000000	0,027141
237,000000	0,248215
236,000000	0,189459
235,000000	-0,028838
234,000000	0,320122
233,000000	0,242479
232,000000	0,689463
231,000000	-0,137619
230,000000	0,094841
229,000000	0,471747
228,000000	0,233532
227,000000	0,243803
226,000000	0,194679
225,000000	0,327246
224,000000	0,174047
223,000000	0,264238
222,000000	0,356669
221,000000	0,216369
220,000000	0,517835
219,000000	0,243596
218,000000	0,042811
217,000000	0,229541
216,000000	0,253047
215,000000	0,685833
214,000000	0,157664
213,000000	-0,149024
212,000000	0,165485
211,000000	0,134230
210,000000	0,408066
209,000000	0,199321
208,000000	0,529361
207,000000	0,303599
206,000000	0,425836
205,000000	0,305374
204,000000	-0,006772
203,000000	0,238924
202,000000	0,080066
201,000000	0,484776
200,000000	0,094520
