PE UV       SUBTECH     SPECTRUM    ASCII       PEDS        4.00        
   -1
DOCI diluido 1_12.Sample.Raw.asc
26/09/02
15:33:21.00
26/09/02
15:33:21.00
Analyst

200,000000
1
Lambda 35
502S09021304
PerkinElmer UV WinLab 6.0.2.0723 / Lambda35 1.27

480
2
1
0
0
Both on
1
1
1
None
0
0
0
0
 
 
0
0
0
0
0
 
 
 
0
 
0
326
0
 
0
 
 
 
0
0
0
 
0
 
 
 
0
 
 
0
0
0
0
0
 
 
 
 
0
0
#HDR
-1
-1
#GR
nm
A
1.0
0.0
900,000000
-1,000000
701
8
2,285321
-0,288792
#DATA
900,000000	0,000854
899,000000	0,000839
898,000000	0,000828
897,000000	0,000806
896,000000	0,000829
895,000000	0,000859
894,000000	0,000907
893,000000	0,000877
892,000000	0,000903
891,000000	0,000919
890,000000	0,000941
889,000000	0,000884
888,000000	0,000836
887,000000	0,000832
886,000000	0,000798
885,000000	0,000760
884,000000	0,000763
883,000000	0,000814
882,000000	0,000880
881,000000	0,000897
880,000000	0,000982
879,000000	0,000873
878,000000	0,000994
877,000000	0,000883
876,000000	0,000908
875,000000	0,000999
874,000000	0,000932
873,000000	0,001001
872,000000	0,001004
871,000000	0,000996
870,000000	0,001040
869,000000	0,001006
868,000000	0,001057
867,000000	0,001085
866,000000	0,001118
865,000000	0,001051
864,000000	0,001190
863,000000	0,001112
862,000000	0,001177
861,000000	0,001144
860,000000	0,001052
859,000000	0,001113
858,000000	0,001120
857,000000	0,001211
856,000000	0,001188
855,000000	0,001100
854,000000	0,001198
853,000000	0,001179
852,000000	0,001317
851,000000	0,001244
850,000000	0,001284
849,000000	0,001294
848,000000	0,001341
847,000000	0,001220
846,000000	0,001253
845,000000	0,001238
844,000000	0,001343
843,000000	0,001386
842,000000	0,001371
841,000000	0,001273
840,000000	0,001433
839,000000	0,001425
838,000000	0,001461
837,000000	0,001341
836,000000	0,001327
835,000000	0,001483
834,000000	0,001494
833,000000	0,001548
832,000000	0,001421
831,000000	0,001472
830,000000	0,001480
829,000000	0,001476
828,000000	0,001502
827,000000	0,001589
826,000000	0,001542
825,000000	0,001463
824,000000	0,001612
823,000000	0,001634
822,000000	0,001609
821,000000	0,001690
820,000000	0,001741
819,000000	0,001749
818,000000	0,001681
817,000000	0,001827
816,000000	0,001838
815,000000	0,001788
814,000000	0,001931
813,000000	0,001914
812,000000	0,002075
811,000000	0,002032
810,000000	0,002033
809,000000	0,002001
808,000000	0,002054
807,000000	0,002172
806,000000	0,002206
805,000000	0,002188
804,000000	0,002267
803,000000	0,002253
802,000000	0,002306
801,000000	0,002263
800,000000	0,002385
799,000000	0,002460
798,000000	0,002443
797,000000	0,002470
796,000000	0,002586
795,000000	0,002628
794,000000	0,002609
793,000000	0,002750
792,000000	0,002645
791,000000	0,002680
790,000000	0,002711
789,000000	0,002783
788,000000	0,002789
787,000000	0,002836
786,000000	0,002742
785,000000	0,002854
784,000000	0,002811
783,000000	0,002835
782,000000	0,002840
781,000000	0,002756
780,000000	0,002836
779,000000	0,002860
778,000000	0,002827
777,000000	0,002907
776,000000	0,002816
775,000000	0,002750
774,000000	0,002807
773,000000	0,002779
772,000000	0,002821
771,000000	0,002771
770,000000	0,002731
769,000000	0,002819
768,000000	0,002697
767,000000	0,002750
766,000000	0,002741
765,000000	0,002731
764,000000	0,002923
763,000000	0,002763
762,000000	0,002873
761,000000	0,002803
760,000000	0,002827
759,000000	0,002878
758,000000	0,002789
757,000000	0,002726
756,000000	0,002826
755,000000	0,002785
754,000000	0,002783
753,000000	0,002717
752,000000	0,002767
751,000000	0,002644
750,000000	0,002709
749,000000	0,002737
748,000000	0,002727
747,000000	0,002664
746,000000	0,002669
745,000000	0,002651
744,000000	0,002690
743,000000	0,002556
742,000000	0,002617
741,000000	0,002630
740,000000	0,002717
739,000000	0,002689
738,000000	0,002758
737,000000	0,002729
736,000000	0,002784
735,000000	0,002865
734,000000	0,002725
733,000000	0,002859
732,000000	0,002838
731,000000	0,002832
730,000000	0,002840
729,000000	0,002849
728,000000	0,002942
727,000000	0,002833
726,000000	0,002849
725,000000	0,002922
724,000000	0,003023
723,000000	0,002971
722,000000	0,002926
721,000000	0,003003
720,000000	0,002909
719,000000	0,003105
718,000000	0,003217
717,000000	0,003226
716,000000	0,003140
715,000000	0,003206
714,000000	0,003264
713,000000	0,003319
712,000000	0,003240
711,000000	0,003326
710,000000	0,003350
709,000000	0,003394
708,000000	0,003368
707,000000	0,003484
706,000000	0,003497
705,000000	0,003410
704,000000	0,003423
703,000000	0,003462
702,000000	0,003510
701,000000	0,003569
700,000000	0,003558
699,000000	0,003663
698,000000	0,003626
697,000000	0,003669
696,000000	0,003721
695,000000	0,003753
694,000000	0,003774
693,000000	0,003813
692,000000	0,003803
691,000000	0,003754
690,000000	0,003764
689,000000	0,003799
688,000000	0,003769
687,000000	0,003689
686,000000	0,003802
685,000000	0,003680
684,000000	0,003472
683,000000	0,003243
682,000000	0,003202
681,000000	0,003226
680,000000	0,003216
679,000000	0,003058
678,000000	0,003055
677,000000	0,002943
676,000000	0,002994
675,000000	0,002887
674,000000	0,002895
673,000000	0,002737
672,000000	0,002664
671,000000	0,002673
670,000000	0,002584
669,000000	0,002527
668,000000	0,002364
667,000000	0,002295
666,000000	0,002155
665,000000	0,002133
664,000000	0,001962
663,000000	0,001928
662,000000	0,001839
661,000000	0,001559
660,000000	0,001660
659,000000	0,001641
658,000000	0,001618
657,000000	0,001509
656,000000	0,001358
655,000000	0,001401
654,000000	0,001382
653,000000	0,001441
652,000000	0,001667
651,000000	0,001329
650,000000	0,001403
649,000000	0,001434
648,000000	0,001411
647,000000	0,001447
646,000000	0,001513
645,000000	0,001552
644,000000	0,001506
643,000000	0,001620
642,000000	0,001589
641,000000	0,001483
640,000000	0,001585
639,000000	0,001570
638,000000	0,001531
637,000000	0,001566
636,000000	0,001500
635,000000	0,001418
634,000000	0,001430
633,000000	0,001481
632,000000	0,001431
631,000000	0,001408
630,000000	0,001306
629,000000	0,001349
628,000000	0,001322
627,000000	0,001288
626,000000	0,001264
625,000000	0,001308
624,000000	0,001222
623,000000	0,001179
622,000000	0,001254
621,000000	0,001152
620,000000	0,001293
619,000000	0,001161
618,000000	0,001094
617,000000	0,001212
616,000000	0,001161
615,000000	0,001126
614,000000	0,001072
613,000000	0,000998
612,000000	0,000982
611,000000	0,001006
610,000000	0,000994
609,000000	0,000892
608,000000	0,000818
607,000000	0,000771
606,000000	0,000693
605,000000	0,000744
604,000000	0,000728
603,000000	0,000555
602,000000	0,000650
601,000000	0,000520
600,000000	0,000509
599,000000	0,000414
598,000000	0,000521
597,000000	0,000340
596,000000	0,000253
595,000000	0,000317
594,000000	0,000222
593,000000	0,000321
592,000000	0,000175
591,000000	0,000075
590,000000	0,000294
589,000000	0,000195
588,000000	0,000076
587,000000	0,000172
586,000000	0,000104
585,000000	0,000160
584,000000	0,000072
583,000000	-0,000100
582,000000	0,000076
581,000000	0,000040
580,000000	0,000108
579,000000	-0,000016
578,000000	-0,000068
577,000000	-0,000064
576,000000	-0,000129
575,000000	-0,000032
574,000000	-0,000064
573,000000	-0,000125
572,000000	-0,000105
571,000000	-0,000157
570,000000	-0,000129
569,000000	-0,000189
568,000000	-0,000129
567,000000	-0,000209
566,000000	-0,000141
565,000000	-0,000298
564,000000	-0,000290
563,000000	-0,000270
562,000000	-0,000270
561,000000	-0,000414
560,000000	-0,000382
559,000000	-0,000342
558,000000	-0,000390
557,000000	-0,000350
556,000000	-0,000257
555,000000	-0,000329
554,000000	-0,000494
553,000000	-0,000534
552,000000	-0,000438
551,000000	-0,000470
550,000000	-0,000458
549,000000	-0,000337
548,000000	-0,000438
547,000000	-0,000450
546,000000	-0,000426
545,000000	-0,000494
544,000000	-0,000454
543,000000	-0,000410
542,000000	-0,000442
541,000000	-0,000285
540,000000	-0,000314
539,000000	-0,000249
538,000000	-0,000205
537,000000	-0,000109
536,000000	-0,000085
535,000000	-0,000089
534,000000	0,000226
533,000000	0,000391
532,000000	0,000476
531,000000	0,000843
530,000000	0,001050
529,000000	0,001515
528,000000	0,001799
527,000000	0,002379
526,000000	0,002899
525,000000	0,003563
524,000000	0,004403
523,000000	0,005315
522,000000	0,006471
521,000000	0,007780
520,000000	0,009586
519,000000	0,011591
518,000000	0,014162
517,000000	0,017391
516,000000	0,021278
515,000000	0,026186
514,000000	0,032225
513,000000	0,039855
512,000000	0,049334
511,000000	0,061470
510,000000	0,076947
509,000000	0,096470
508,000000	0,120528
507,000000	0,150865
506,000000	0,188123
505,000000	0,234022
504,000000	0,290432
503,000000	0,358467
502,000000	0,439923
501,000000	0,536800
500,000000	0,649981
499,000000	0,779421
498,000000	0,925725
497,000000	1,086229
496,000000	1,255891
495,000000	1,429440
494,000000	1,599954
493,000000	1,758348
492,000000	1,898813
491,000000	2,014383
490,000000	2,108323
489,000000	2,178997
488,000000	2,224833
487,000000	2,257467
486,000000	2,277695
485,000000	2,285321
484,000000	2,282820
483,000000	2,268860
482,000000	2,247965
481,000000	2,212453
480,000000	2,165027
479,000000	2,112014
478,000000	2,046658
477,000000	1,979909
476,000000	1,913605
475,000000	1,847537
474,000000	1,785928
473,000000	1,733206
472,000000	1,686913
471,000000	1,648032
470,000000	1,619890
469,000000	1,598077
468,000000	1,583209
467,000000	1,571766
466,000000	1,564854
465,000000	1,559633
464,000000	1,553156
463,000000	1,545254
462,000000	1,533202
461,000000	1,516801
460,000000	1,495311
459,000000	1,468077
458,000000	1,435420
457,000000	1,397248
456,000000	1,354042
455,000000	1,305734
454,000000	1,253485
453,000000	1,198870
452,000000	1,142311
451,000000	1,084358
450,000000	1,027918
449,000000	0,972117
448,000000	0,919161
447,000000	0,869332
446,000000	0,821350
445,000000	0,777371
444,000000	0,735942
443,000000	0,697059
442,000000	0,661616
441,000000	0,629289
440,000000	0,598423
439,000000	0,569811
438,000000	0,543098
437,000000	0,517180
436,000000	0,492214
435,000000	0,468243
434,000000	0,444932
433,000000	0,421651
432,000000	0,398806
431,000000	0,376380
430,000000	0,354708
429,000000	0,333542
428,000000	0,312945
427,000000	0,293177
426,000000	0,274069
425,000000	0,256183
424,000000	0,238698
423,000000	0,222058
422,000000	0,206311
421,000000	0,191731
420,000000	0,178111
419,000000	0,165441
418,000000	0,153831
417,000000	0,142991
416,000000	0,132905
415,000000	0,123397
414,000000	0,114723
413,000000	0,106611
412,000000	0,098970
411,000000	0,091873
410,000000	0,085272
409,000000	0,079193
408,000000	0,073485
407,000000	0,068165
406,000000	0,063085
405,000000	0,058507
404,000000	0,054028
403,000000	0,049903
402,000000	0,046082
401,000000	0,042660
400,000000	0,039469
399,000000	0,036472
398,000000	0,033586
397,000000	0,031064
396,000000	0,028825
395,000000	0,026523
394,000000	0,024563
393,000000	0,022697
392,000000	0,021209
391,000000	0,019673
390,000000	0,018198
389,000000	0,017067
388,000000	0,015903
387,000000	0,014837
386,000000	0,013954
385,000000	0,013165
384,000000	0,011001
383,000000	0,010186
382,000000	0,009434
381,000000	0,008573
380,000000	0,008329
379,000000	0,007952
378,000000	0,007777
377,000000	0,007292
376,000000	0,006800
375,000000	0,006768
374,000000	0,006287
373,000000	0,006396
372,000000	0,006174
371,000000	0,005812
370,000000	0,005349
369,000000	0,005417
368,000000	0,005176
367,000000	0,005013
366,000000	0,004627
365,000000	0,004667
364,000000	0,004627
363,000000	0,004506
362,000000	0,004519
361,000000	0,004547
360,000000	0,004529
359,000000	0,004409
358,000000	0,004301
357,000000	0,004460
356,000000	0,004314
355,000000	0,004204
354,000000	0,004274
353,000000	0,004429
352,000000	0,004351
351,000000	0,004430
350,000000	0,004243
349,000000	0,004612
348,000000	0,004760
347,000000	0,004746
346,000000	0,004612
345,000000	0,004922
344,000000	0,005168
343,000000	0,005097
342,000000	0,005521
341,000000	0,004870
340,000000	0,005608
339,000000	0,005680
338,000000	0,006014
337,000000	0,006204
336,000000	0,006329
335,000000	0,006673
334,000000	0,006780
333,000000	0,007207
332,000000	0,007049
331,000000	0,007228
330,000000	0,008112
329,000000	0,007686
328,000000	0,008424
327,000000	0,008069
326,000000	0,008262
325,000000	0,008740
324,000000	0,009345
323,000000	0,009855
322,000000	0,009915
321,000000	0,010807
320,000000	0,011736
319,000000	0,012323
318,000000	0,013860
317,000000	0,014807
316,000000	0,016664
315,000000	0,018340
314,000000	0,020659
313,000000	0,023108
312,000000	0,025990
311,000000	0,029619
310,000000	0,033859
309,000000	0,039089
308,000000	0,044831
307,000000	0,051688
306,000000	0,060345
305,000000	0,069460
304,000000	0,079208
303,000000	0,089939
302,000000	0,098949
301,000000	0,106034
300,000000	0,113211
299,000000	0,117545
298,000000	0,120699
297,000000	0,121984
296,000000	0,124323
295,000000	0,127499
294,000000	0,126931
293,000000	0,125173
292,000000	0,125361
291,000000	0,130594
290,000000	0,131898
289,000000	0,139071
288,000000	0,133915
287,000000	0,128642
286,000000	0,136337
285,000000	0,109373
284,000000	0,131278
283,000000	0,086890
282,000000	0,012841
281,000000	0,098909
280,000000	0,098789
279,000000	0,097385
278,000000	0,099191
277,000000	0,028672
276,000000	-0,003072
275,000000	0,035432
274,000000	0,093814
273,000000	0,097025
272,000000	0,038665
271,000000	0,162959
270,000000	0,088002
269,000000	0,028874
268,000000	0,239328
267,000000	0,125188
266,000000	0,055042
265,000000	0,040390
264,000000	0,143204
263,000000	0,095514
262,000000	0,097497
261,000000	-0,003136
260,000000	-0,004404
259,000000	0,069327
258,000000	0,153254
257,000000	0,214956
256,000000	0,151610
255,000000	0,002254
254,000000	0,095049
253,000000	0,339768
252,000000	0,248047
251,000000	0,161613
250,000000	0,100220
249,000000	0,201686
248,000000	0,108267
247,000000	0,288145
246,000000	0,188433
245,000000	0,049773
244,000000	0,249023
243,000000	0,276653
242,000000	0,172498
241,000000	0,169928
240,000000	0,087226
239,000000	0,250354
238,000000	0,022091
237,000000	0,337399
236,000000	0,313068
235,000000	-0,001267
234,000000	0,024569
233,000000	0,233574
232,000000	0,529379
231,000000	-0,288792
230,000000	0,000050
229,000000	0,426753
228,000000	0,014770
227,000000	0,333778
226,000000	0,041408
225,000000	0,203301
224,000000	0,006685
223,000000	0,336376
222,000000	0,643766
221,000000	0,242765
220,000000	0,380712
219,000000	0,221372
218,000000	0,128526
217,000000	0,246045
216,000000	0,400850
215,000000	0,351863
214,000000	0,240357
213,000000	-0,273470
212,000000	0,262075
211,000000	-0,036330
210,000000	0,192055
209,000000	0,259811
208,000000	0,346385
207,000000	0,394703
206,000000	0,120690
205,000000	0,241625
204,000000	0,326285
203,000000	0,302659
202,000000	0,064115
201,000000	0,335202
200,000000	0,101386
