PE UV       SUBTECH     SPECTRUM    ASCII       PEDS        4.00        
   -1
DODCI diluido 1_6.Sample.Raw.asc
26/09/02
15:37:18.00
26/09/02
15:37:18.00
Analyst

200,000000
1
Lambda 35
502S09021304
PerkinElmer UV WinLab 6.0.2.0723 / Lambda35 1.27

480
2
1
0
0
Both on
1
1
1
None
0
0
0
0
 
 
0
0
0
0
0
 
 
 
0
 
0
326
0
 
0
 
 
 
0
0
0
 
0
 
 
 
0
 
 
0
0
0
0
0
 
 
 
 
0
0
#HDR
-1
-1
#GR
nm
A
1.0
0.0
900,000000
-1,000000
701
8
2,964429
-0,184508
#DATA
900,000000	0,000958
899,000000	0,001063
898,000000	0,000948
897,000000	0,000933
896,000000	0,000903
895,000000	0,000881
894,000000	0,000810
893,000000	0,000967
892,000000	0,000982
891,000000	0,000881
890,000000	0,000929
889,000000	0,000840
888,000000	0,000903
887,000000	0,000891
886,000000	0,000786
885,000000	0,000782
884,000000	0,000755
883,000000	0,000933
882,000000	0,000895
881,000000	0,000890
880,000000	0,000889
879,000000	0,000858
878,000000	0,000920
877,000000	0,000805
876,000000	0,000863
875,000000	0,000874
874,000000	0,000843
873,000000	0,000957
872,000000	0,000945
871,000000	0,000867
870,000000	0,000926
869,000000	0,000896
868,000000	0,000840
867,000000	0,000814
866,000000	0,000986
865,000000	0,000882
864,000000	0,000882
863,000000	0,000969
862,000000	0,000998
861,000000	0,000928
860,000000	0,000818
859,000000	0,001047
858,000000	0,000941
857,000000	0,000908
856,000000	0,000904
855,000000	0,000860
854,000000	0,000885
853,000000	0,001070
852,000000	0,000953
851,000000	0,000985
850,000000	0,001047
849,000000	0,001025
848,000000	0,000962
847,000000	0,001006
846,000000	0,001125
845,000000	0,001009
844,000000	0,001012
843,000000	0,001077
842,000000	0,001110
841,000000	0,001008
840,000000	0,001033
839,000000	0,001124
838,000000	0,001134
837,000000	0,001073
836,000000	0,000979
835,000000	0,001160
834,000000	0,001138
833,000000	0,001113
832,000000	0,001095
831,000000	0,001087
830,000000	0,001080
829,000000	0,001102
828,000000	0,001120
827,000000	0,001088
826,000000	0,001085
825,000000	0,000950
824,000000	0,001085
823,000000	0,001056
822,000000	0,001085
821,000000	0,001122
820,000000	0,001119
819,000000	0,001090
818,000000	0,000949
817,000000	0,001065
816,000000	0,001073
815,000000	0,001063
814,000000	0,001067
813,000000	0,001089
812,000000	0,001202
811,000000	0,001104
810,000000	0,001112
809,000000	0,001007
808,000000	0,001004
807,000000	0,001117
806,000000	0,001016
805,000000	0,001100
804,000000	0,001086
803,000000	0,001101
802,000000	0,001054
801,000000	0,001033
800,000000	0,001096
799,000000	0,001173
798,000000	0,001185
797,000000	0,001175
796,000000	0,001102
795,000000	0,001161
794,000000	0,001117
793,000000	0,001250
792,000000	0,001114
791,000000	0,001200
790,000000	0,001138
789,000000	0,001190
788,000000	0,001165
787,000000	0,001332
786,000000	0,001182
785,000000	0,001312
784,000000	0,001224
783,000000	0,001347
782,000000	0,001255
781,000000	0,001270
780,000000	0,001186
779,000000	0,001234
778,000000	0,001253
777,000000	0,001258
776,000000	0,001192
775,000000	0,001241
774,000000	0,001256
773,000000	0,001209
772,000000	0,001179
771,000000	0,001314
770,000000	0,001248
769,000000	0,001271
768,000000	0,001219
767,000000	0,001306
766,000000	0,001243
765,000000	0,001251
764,000000	0,001375
763,000000	0,001286
762,000000	0,001286
761,000000	0,001336
760,000000	0,001340
759,000000	0,001228
758,000000	0,001323
757,000000	0,001263
756,000000	0,001223
755,000000	0,001411
754,000000	0,001265
753,000000	0,001262
752,000000	0,001266
751,000000	0,001150
750,000000	0,001181
749,000000	0,001208
748,000000	0,001160
747,000000	0,001160
746,000000	0,001157
745,000000	0,001207
744,000000	0,001135
743,000000	0,001144
742,000000	0,001114
741,000000	0,001163
740,000000	0,001266
739,000000	0,001168
738,000000	0,001282
737,000000	0,001162
736,000000	0,001223
735,000000	0,001182
734,000000	0,001209
733,000000	0,001274
732,000000	0,001248
731,000000	0,001191
730,000000	0,001256
729,000000	0,001249
728,000000	0,001330
727,000000	0,001277
726,000000	0,001308
725,000000	0,001285
724,000000	0,001381
723,000000	0,001359
722,000000	0,001291
721,000000	0,001413
720,000000	0,001345
719,000000	0,001372
718,000000	0,001380
717,000000	0,001423
716,000000	0,001278
715,000000	0,001256
714,000000	0,001333
713,000000	0,001379
712,000000	0,001334
711,000000	0,001239
710,000000	0,001243
709,000000	0,001205
708,000000	0,001247
707,000000	0,001286
706,000000	0,001283
705,000000	0,001218
704,000000	0,001119
703,000000	0,001127
702,000000	0,001085
701,000000	0,001005
700,000000	0,001032
699,000000	0,001044
698,000000	0,000959
697,000000	0,000975
696,000000	0,000929
695,000000	0,000876
694,000000	0,000853
693,000000	0,000792
692,000000	0,000719
691,000000	0,000746
690,000000	0,000565
689,000000	0,000589
688,000000	0,000562
687,000000	0,000500
686,000000	0,000539
685,000000	0,000470
684,000000	0,000358
683,000000	0,000327
682,000000	0,000378
681,000000	0,000324
680,000000	0,000282
679,000000	0,000139
678,000000	0,000178
677,000000	0,000124
676,000000	0,000112
675,000000	-0,000004
674,000000	0,000070
673,000000	-0,000000
672,000000	0,000023
671,000000	0,000035
670,000000	0,000101
669,000000	0,000105
668,000000	0,000101
667,000000	0,000174
666,000000	0,000244
665,000000	0,000399
664,000000	0,000396
663,000000	0,000570
662,000000	0,000773
661,000000	0,000854
660,000000	0,001208
659,000000	0,001575
658,000000	0,001969
657,000000	0,002285
656,000000	0,002724
655,000000	0,003233
654,000000	0,003896
653,000000	0,004807
652,000000	0,005843
651,000000	0,006527
650,000000	0,007816
649,000000	0,009056
648,000000	0,010667
647,000000	0,012355
646,000000	0,014412
645,000000	0,016769
644,000000	0,019242
643,000000	0,022376
642,000000	0,025743
641,000000	0,029644
640,000000	0,034164
639,000000	0,039113
638,000000	0,044570
637,000000	0,050686
636,000000	0,057490
635,000000	0,064735
634,000000	0,072805
633,000000	0,081259
632,000000	0,090242
631,000000	0,099654
630,000000	0,109474
629,000000	0,119556
628,000000	0,129971
627,000000	0,140940
626,000000	0,152788
625,000000	0,165816
624,000000	0,180359
623,000000	0,196789
622,000000	0,215621
621,000000	0,237301
620,000000	0,262998
619,000000	0,292946
618,000000	0,327956
617,000000	0,369525
616,000000	0,418070
615,000000	0,474842
614,000000	0,541213
613,000000	0,617611
612,000000	0,706314
611,000000	0,807342
610,000000	0,922221
609,000000	1,050059
608,000000	1,192721
607,000000	1,351313
606,000000	1,523735
605,000000	1,708235
604,000000	1,901476
603,000000	2,095213
602,000000	2,277613
601,000000	2,434829
600,000000	2,553532
599,000000	2,636902
598,000000	2,695206
597,000000	2,729532
596,000000	2,748698
595,000000	2,752809
594,000000	2,770678
593,000000	2,779842
592,000000	2,786529
591,000000	2,793362
590,000000	2,800554
589,000000	2,800093
588,000000	2,809679
587,000000	2,809057
586,000000	2,818913
585,000000	2,831822
584,000000	2,836741
583,000000	2,844485
582,000000	2,855511
581,000000	2,858068
580,000000	2,854825
579,000000	2,854459
578,000000	2,877871
577,000000	2,883718
576,000000	2,889749
575,000000	2,902390
574,000000	2,911992
573,000000	2,921920
572,000000	2,928718
571,000000	2,921900
570,000000	2,946146
569,000000	2,964356
568,000000	2,964409
567,000000	2,964429
566,000000	2,960850
565,000000	2,946364
564,000000	2,918832
563,000000	2,886773
562,000000	2,859771
561,000000	2,812841
560,000000	2,777789
559,000000	2,738724
558,000000	2,715292
557,000000	2,662408
556,000000	2,616936
555,000000	2,574192
554,000000	2,546519
553,000000	2,507366
552,000000	2,481174
551,000000	2,451782
550,000000	2,425344
549,000000	2,397531
548,000000	2,370306
547,000000	2,338477
546,000000	2,308864
545,000000	2,272690
544,000000	2,235143
543,000000	2,193607
542,000000	2,148207
541,000000	2,100551
540,000000	2,048888
539,000000	1,992334
538,000000	1,934229
537,000000	1,872321
536,000000	1,807728
535,000000	1,740081
534,000000	1,672852
533,000000	1,604108
532,000000	1,535744
531,000000	1,467956
530,000000	1,400930
529,000000	1,334808
528,000000	1,269960
527,000000	1,207730
526,000000	1,147887
525,000000	1,090949
524,000000	1,036882
523,000000	0,985620
522,000000	0,937777
521,000000	0,892981
520,000000	0,850862
519,000000	0,811654
518,000000	0,774972
517,000000	0,740719
516,000000	0,709029
515,000000	0,679353
514,000000	0,651921
513,000000	0,626185
512,000000	0,601878
511,000000	0,578813
510,000000	0,556795
509,000000	0,535737
508,000000	0,515628
507,000000	0,496496
506,000000	0,478156
505,000000	0,460529
504,000000	0,443241
503,000000	0,426390
502,000000	0,410188
501,000000	0,394255
500,000000	0,378510
499,000000	0,363409
498,000000	0,348523
497,000000	0,334020
496,000000	0,319900
495,000000	0,306205
494,000000	0,292870
493,000000	0,280054
492,000000	0,267464
491,000000	0,255264
490,000000	0,243435
489,000000	0,232033
488,000000	0,221142
487,000000	0,210612
486,000000	0,200560
485,000000	0,190961
484,000000	0,181860
483,000000	0,173207
482,000000	0,164792
481,000000	0,156929
480,000000	0,149507
479,000000	0,142305
478,000000	0,135534
477,000000	0,129301
476,000000	0,123350
475,000000	0,117771
474,000000	0,112539
473,000000	0,107567
472,000000	0,103022
471,000000	0,098493
470,000000	0,094136
469,000000	0,090110
468,000000	0,086348
467,000000	0,082490
466,000000	0,079065
465,000000	0,075675
464,000000	0,072424
463,000000	0,069395
462,000000	0,066151
461,000000	0,063116
460,000000	0,060243
459,000000	0,057435
458,000000	0,054666
457,000000	0,052159
456,000000	0,049634
455,000000	0,046990
454,000000	0,044794
453,000000	0,042344
452,000000	0,040341
451,000000	0,038182
450,000000	0,036326
449,000000	0,034333
448,000000	0,032550
447,000000	0,030883
446,000000	0,029236
445,000000	0,027718
444,000000	0,026324
443,000000	0,024919
442,000000	0,023697
441,000000	0,022642
440,000000	0,021307
439,000000	0,020206
438,000000	0,019392
437,000000	0,018268
436,000000	0,017277
435,000000	0,016546
434,000000	0,015775
433,000000	0,014853
432,000000	0,014204
431,000000	0,013471
430,000000	0,012895
429,000000	0,012273
428,000000	0,011623
427,000000	0,010957
426,000000	0,010361
425,000000	0,009990
424,000000	0,009294
423,000000	0,008846
422,000000	0,008402
421,000000	0,008035
420,000000	0,007597
419,000000	0,007247
418,000000	0,006831
417,000000	0,006431
416,000000	0,006197
415,000000	0,005914
414,000000	0,005702
413,000000	0,005358
412,000000	0,005270
411,000000	0,004889
410,000000	0,004771
409,000000	0,004678
408,000000	0,004429
407,000000	0,004374
406,000000	0,004092
405,000000	0,003998
404,000000	0,003957
403,000000	0,003734
402,000000	0,003772
401,000000	0,003603
400,000000	0,003473
399,000000	0,003495
398,000000	0,003305
397,000000	0,003395
396,000000	0,003332
395,000000	0,003277
394,000000	0,003384
393,000000	0,003233
392,000000	0,003377
391,000000	0,003374
390,000000	0,003337
389,000000	0,003452
388,000000	0,003512
387,000000	0,003560
386,000000	0,003476
385,000000	0,003708
384,000000	0,003174
383,000000	0,002919
382,000000	0,002716
381,000000	0,003090
380,000000	0,002893
379,000000	0,002831
378,000000	0,003319
377,000000	0,003423
376,000000	0,003497
375,000000	0,003785
374,000000	0,003876
373,000000	0,004258
372,000000	0,004544
371,000000	0,004831
370,000000	0,005123
369,000000	0,005575
368,000000	0,005734
367,000000	0,006728
366,000000	0,006874
365,000000	0,007548
364,000000	0,008097
363,000000	0,008974
362,000000	0,009899
361,000000	0,010683
360,000000	0,011704
359,000000	0,012449
358,000000	0,013352
357,000000	0,014573
356,000000	0,015611
355,000000	0,016405
354,000000	0,017327
353,000000	0,018597
352,000000	0,019602
351,000000	0,020916
350,000000	0,022246
349,000000	0,024348
348,000000	0,026587
347,000000	0,029644
346,000000	0,032849
345,000000	0,037123
344,000000	0,041812
343,000000	0,047565
342,000000	0,053909
341,000000	0,060722
340,000000	0,067953
339,000000	0,075636
338,000000	0,083217
337,000000	0,090528
336,000000	0,097073
335,000000	0,103615
334,000000	0,109100
333,000000	0,114489
332,000000	0,119549
331,000000	0,124499
330,000000	0,130428
329,000000	0,136586
328,000000	0,143117
327,000000	0,150871
326,000000	0,158560
325,000000	0,166791
324,000000	0,175040
323,000000	0,183262
322,000000	0,191636
321,000000	0,199766
320,000000	0,208752
319,000000	0,218537
318,000000	0,230113
317,000000	0,243258
316,000000	0,258424
315,000000	0,275216
314,000000	0,293470
313,000000	0,311232
312,000000	0,326836
311,000000	0,340245
310,000000	0,349470
309,000000	0,353666
308,000000	0,353934
307,000000	0,350865
306,000000	0,346026
305,000000	0,339881
304,000000	0,333928
303,000000	0,326129
302,000000	0,318964
301,000000	0,310142
300,000000	0,302467
299,000000	0,292539
298,000000	0,283319
297,000000	0,273836
296,000000	0,265380
295,000000	0,256991
294,000000	0,249758
293,000000	0,242171
292,000000	0,239019
291,000000	0,233454
290,000000	0,232372
289,000000	0,226529
288,000000	0,224573
287,000000	0,225079
286,000000	0,219142
285,000000	0,219458
284,000000	0,216494
283,000000	0,197770
282,000000	0,188014
281,000000	0,180566
280,000000	0,220679
279,000000	0,203847
278,000000	0,168112
277,000000	0,245680
276,000000	0,145679
275,000000	0,134682
274,000000	0,149477
273,000000	0,218426
272,000000	0,159758
271,000000	0,300521
270,000000	0,189526
269,000000	0,260210
268,000000	0,368289
267,000000	0,193439
266,000000	0,165476
265,000000	0,233908
264,000000	0,233290
263,000000	0,289566
262,000000	0,272629
261,000000	0,170008
260,000000	0,137916
259,000000	0,356687
258,000000	0,284372
257,000000	0,310150
256,000000	0,254000
255,000000	0,049303
254,000000	0,352851
253,000000	0,331104
252,000000	0,334476
251,000000	0,436379
250,000000	0,171927
249,000000	0,301803
248,000000	0,260989
247,000000	0,292602
246,000000	0,189601
245,000000	0,391483
244,000000	0,507743
243,000000	0,312932
242,000000	0,281644
241,000000	0,227092
240,000000	0,488795
239,000000	0,415111
238,000000	0,049339
237,000000	0,393124
236,000000	0,463770
235,000000	0,146721
234,000000	0,233957
233,000000	0,560595
232,000000	0,702292
231,000000	-0,184508
230,000000	0,282140
229,000000	0,609861
228,000000	0,172738
227,000000	0,400094
226,000000	0,012125
225,000000	0,455102
224,000000	0,633221
223,000000	0,173750
222,000000	0,410802
221,000000	0,484636
220,000000	0,471670
219,000000	0,377576
218,000000	0,140766
217,000000	0,243771
216,000000	0,488310
215,000000	0,423780
214,000000	0,268592
213,000000	0,097039
212,000000	0,407411
211,000000	0,032074
210,000000	0,339522
209,000000	0,385980
208,000000	0,759377
207,000000	0,570256
206,000000	0,287570
205,000000	0,195894
204,000000	0,498570
203,000000	0,241594
202,000000	-0,133593
201,000000	0,889440
200,000000	0,200601
