PE UV       SUBTECH     SPECTRUM    ASCII       PEDS        4.00        
   -1
DODCI diluido 1_18.Sample.Raw.asc
26/09/02
15:40:47.00
26/09/02
15:40:47.00
Analyst

200,000000
1
Lambda 35
502S09021304
PerkinElmer UV WinLab 6.0.2.0723 / Lambda35 1.27

480
2
1
0
0
Both on
1
1
1
None
0
0
0
0
 
 
0
0
0
0
0
 
 
 
0
 
0
326
0
 
0
 
 
 
0
0
0
 
0
 
 
 
0
 
 
0
0
0
0
0
 
 
 
 
0
0
#HDR
-1
-1
#GR
nm
A
1.0
0.0
900,000000
-1,000000
701
8
1,699760
-0,476460
#DATA
900,000000	0,003601
899,000000	0,003572
898,000000	0,003596
897,000000	0,003635
896,000000	0,003621
895,000000	0,003599
894,000000	0,003659
893,000000	0,003716
892,000000	0,003779
891,000000	0,003682
890,000000	0,003726
889,000000	0,003876
888,000000	0,003773
887,000000	0,003757
886,000000	0,003743
885,000000	0,003726
884,000000	0,003809
883,000000	0,003782
882,000000	0,003849
881,000000	0,003874
880,000000	0,003828
879,000000	0,003898
878,000000	0,003868
877,000000	0,003835
876,000000	0,003835
875,000000	0,003869
874,000000	0,003925
873,000000	0,004000
872,000000	0,003849
871,000000	0,003839
870,000000	0,003921
869,000000	0,003926
868,000000	0,003913
867,000000	0,003970
866,000000	0,003981
865,000000	0,003847
864,000000	0,003929
863,000000	0,003790
862,000000	0,003795
861,000000	0,003797
860,000000	0,003839
859,000000	0,003837
858,000000	0,003872
857,000000	0,003929
856,000000	0,003784
855,000000	0,003805
854,000000	0,003857
853,000000	0,003829
852,000000	0,003938
851,000000	0,003819
850,000000	0,003858
849,000000	0,003926
848,000000	0,003907
847,000000	0,003774
846,000000	0,003878
845,000000	0,003856
844,000000	0,003815
843,000000	0,003861
842,000000	0,003842
841,000000	0,003754
840,000000	0,003808
839,000000	0,003770
838,000000	0,003803
837,000000	0,003719
836,000000	0,003610
835,000000	0,003715
834,000000	0,003627
833,000000	0,003718
832,000000	0,003595
831,000000	0,003621
830,000000	0,003559
829,000000	0,003504
828,000000	0,003479
827,000000	0,003462
826,000000	0,003415
825,000000	0,003372
824,000000	0,003347
823,000000	0,003279
822,000000	0,003195
821,000000	0,003313
820,000000	0,003248
819,000000	0,003231
818,000000	0,003013
817,000000	0,003101
816,000000	0,003015
815,000000	0,003027
814,000000	0,003017
813,000000	0,002993
812,000000	0,002939
811,000000	0,002911
810,000000	0,002854
809,000000	0,002771
808,000000	0,002776
807,000000	0,002773
806,000000	0,002701
805,000000	0,002710
804,000000	0,002755
803,000000	0,002606
802,000000	0,002659
801,000000	0,002550
800,000000	0,002606
799,000000	0,002604
798,000000	0,002620
797,000000	0,002599
796,000000	0,002571
795,000000	0,002631
794,000000	0,002642
793,000000	0,002706
792,000000	0,002671
791,000000	0,002658
790,000000	0,002622
789,000000	0,002546
788,000000	0,002423
787,000000	0,002469
786,000000	0,002500
785,000000	0,002409
784,000000	0,002455
783,000000	0,002448
782,000000	0,002424
781,000000	0,002340
780,000000	0,002326
779,000000	0,002316
778,000000	0,002410
777,000000	0,002356
776,000000	0,002364
775,000000	0,002269
774,000000	0,002400
773,000000	0,002383
772,000000	0,002336
771,000000	0,002355
770,000000	0,002305
769,000000	0,002418
768,000000	0,002240
767,000000	0,002353
766,000000	0,002250
765,000000	0,002363
764,000000	0,002330
763,000000	0,002380
762,000000	0,002306
761,000000	0,002311
760,000000	0,002346
759,000000	0,002362
758,000000	0,002329
757,000000	0,002256
756,000000	0,002287
755,000000	0,002363
754,000000	0,002251
753,000000	0,002234
752,000000	0,002276
751,000000	0,002123
750,000000	0,002146
749,000000	0,002110
748,000000	0,002133
747,000000	0,002036
746,000000	0,002143
745,000000	0,002083
744,000000	0,002069
743,000000	0,001999
742,000000	0,002014
741,000000	0,002023
740,000000	0,002186
739,000000	0,002025
738,000000	0,002207
737,000000	0,002023
736,000000	0,002077
735,000000	0,002108
734,000000	0,002022
733,000000	0,002117
732,000000	0,002099
731,000000	0,002138
730,000000	0,002048
729,000000	0,002071
728,000000	0,002125
727,000000	0,002001
726,000000	0,002044
725,000000	0,002055
724,000000	0,002151
723,000000	0,002011
722,000000	0,002031
721,000000	0,002078
720,000000	0,002010
719,000000	0,001999
718,000000	0,002068
717,000000	0,002088
716,000000	0,001971
715,000000	0,001952
714,000000	0,002014
713,000000	0,002087
712,000000	0,001997
711,000000	0,001955
710,000000	0,001933
709,000000	0,001964
708,000000	0,001938
707,000000	0,001996
706,000000	0,002008
705,000000	0,001936
704,000000	0,001956
703,000000	0,001975
702,000000	0,002003
701,000000	0,001969
700,000000	0,001973
699,000000	0,002001
698,000000	0,001967
697,000000	0,001960
696,000000	0,001968
695,000000	0,002015
694,000000	0,001989
693,000000	0,002016
692,000000	0,001909
691,000000	0,001929
690,000000	0,001868
689,000000	0,001892
688,000000	0,001884
687,000000	0,001816
686,000000	0,001885
685,000000	0,001809
684,000000	0,001767
683,000000	0,001787
682,000000	0,001699
681,000000	0,001792
680,000000	0,001676
679,000000	0,001615
678,000000	0,001519
677,000000	0,001535
676,000000	0,001586
675,000000	0,001451
674,000000	0,001436
673,000000	0,001336
672,000000	0,001320
671,000000	0,001352
670,000000	0,001314
669,000000	0,001368
668,000000	0,001314
667,000000	0,001342
666,000000	0,001300
665,000000	0,001285
664,000000	0,001239
663,000000	0,001305
662,000000	0,001282
661,000000	0,001356
660,000000	0,001625
659,000000	0,001637
658,000000	0,001836
657,000000	0,001852
656,000000	0,001912
655,000000	0,002060
654,000000	0,002252
653,000000	0,002506
652,000000	0,002800
651,000000	0,002666
650,000000	0,003147
649,000000	0,003528
648,000000	0,003906
647,000000	0,004315
646,000000	0,004965
645,000000	0,005517
644,000000	0,006147
643,000000	0,006930
642,000000	0,007855
641,000000	0,008938
640,000000	0,009965
639,000000	0,011344
638,000000	0,012689
637,000000	0,014156
636,000000	0,015952
635,000000	0,017676
634,000000	0,019662
633,000000	0,021824
632,000000	0,024050
631,000000	0,026307
630,000000	0,028829
629,000000	0,031314
628,000000	0,033964
627,000000	0,036628
626,000000	0,039436
625,000000	0,042732
624,000000	0,046246
623,000000	0,050291
622,000000	0,054886
621,000000	0,060209
620,000000	0,066582
619,000000	0,073788
618,000000	0,082362
617,000000	0,092686
616,000000	0,104365
615,000000	0,118321
614,000000	0,134493
613,000000	0,153107
612,000000	0,174869
611,000000	0,199696
610,000000	0,228089
609,000000	0,259712
608,000000	0,295301
607,000000	0,335192
606,000000	0,379685
605,000000	0,428806
604,000000	0,482828
603,000000	0,541601
602,000000	0,604627
601,000000	0,671253
600,000000	0,741988
599,000000	0,814672
598,000000	0,889699
597,000000	0,966982
596,000000	1,046153
595,000000	1,125316
594,000000	1,203487
593,000000	1,279265
592,000000	1,351141
591,000000	1,417906
590,000000	1,479772
589,000000	1,534485
588,000000	1,582264
587,000000	1,621637
586,000000	1,654380
585,000000	1,678388
584,000000	1,692975
583,000000	1,699760
582,000000	1,698229
581,000000	1,688393
580,000000	1,670754
579,000000	1,645157
578,000000	1,614408
577,000000	1,576875
576,000000	1,533214
575,000000	1,485072
574,000000	1,433776
573,000000	1,379394
572,000000	1,324101
571,000000	1,267268
570,000000	1,210796
569,000000	1,154998
568,000000	1,100476
567,000000	1,048313
566,000000	0,998585
565,000000	0,951628
564,000000	0,908109
563,000000	0,868429
562,000000	0,832626
561,000000	0,800639
560,000000	0,771751
559,000000	0,746128
558,000000	0,723363
557,000000	0,704119
556,000000	0,687439
555,000000	0,672897
554,000000	0,660395
553,000000	0,649567
552,000000	0,639793
551,000000	0,630931
550,000000	0,622469
549,000000	0,614311
548,000000	0,605904
547,000000	0,597080
546,000000	0,588043
545,000000	0,577986
544,000000	0,567445
543,000000	0,555854
542,000000	0,543666
541,000000	0,530559
540,000000	0,516405
539,000000	0,501431
538,000000	0,485678
537,000000	0,469372
536,000000	0,452341
535,000000	0,434964
534,000000	0,417600
533,000000	0,400099
532,000000	0,382770
531,000000	0,365764
530,000000	0,348874
529,000000	0,332426
528,000000	0,316202
527,000000	0,300703
526,000000	0,285893
525,000000	0,271726
524,000000	0,258343
523,000000	0,245752
522,000000	0,233836
521,000000	0,222728
520,000000	0,212409
519,000000	0,202808
518,000000	0,193640
517,000000	0,185275
516,000000	0,177463
515,000000	0,170235
514,000000	0,163491
513,000000	0,157034
512,000000	0,151063
511,000000	0,145535
510,000000	0,140087
509,000000	0,134907
508,000000	0,129999
507,000000	0,125296
506,000000	0,120974
505,000000	0,116492
504,000000	0,112229
503,000000	0,108127
502,000000	0,104212
501,000000	0,100420
500,000000	0,096526
499,000000	0,092936
498,000000	0,089388
497,000000	0,085902
496,000000	0,082451
495,000000	0,079208
494,000000	0,075959
493,000000	0,072899
492,000000	0,069894
491,000000	0,066955
490,000000	0,064132
489,000000	0,061402
488,000000	0,058633
487,000000	0,056148
486,000000	0,053722
485,000000	0,051314
484,000000	0,049124
483,000000	0,047021
482,000000	0,044894
481,000000	0,042944
480,000000	0,041059
479,000000	0,039246
478,000000	0,037585
477,000000	0,035924
476,000000	0,034534
475,000000	0,033088
474,000000	0,031777
473,000000	0,030492
472,000000	0,029386
471,000000	0,028261
470,000000	0,027080
469,000000	0,026102
468,000000	0,025250
467,000000	0,024157
466,000000	0,023388
465,000000	0,022367
464,000000	0,021621
463,000000	0,020919
462,000000	0,020076
461,000000	0,019307
460,000000	0,018598
459,000000	0,017926
458,000000	0,017164
457,000000	0,016557
456,000000	0,015951
455,000000	0,015090
454,000000	0,014595
453,000000	0,013893
452,000000	0,013407
451,000000	0,012955
450,000000	0,012320
449,000000	0,011852
448,000000	0,011432
447,000000	0,010895
446,000000	0,010490
445,000000	0,010154
444,000000	0,009717
443,000000	0,009430
442,000000	0,009094
441,000000	0,008925
440,000000	0,008407
439,000000	0,008201
438,000000	0,008012
437,000000	0,007610
436,000000	0,007376
435,000000	0,007297
434,000000	0,007111
433,000000	0,006901
432,000000	0,006669
431,000000	0,006626
430,000000	0,006317
429,000000	0,006342
428,000000	0,006102
427,000000	0,005881
426,000000	0,005801
425,000000	0,005732
424,000000	0,005546
423,000000	0,005280
422,000000	0,005293
421,000000	0,005056
420,000000	0,005019
419,000000	0,004942
418,000000	0,004740
417,000000	0,004605
416,000000	0,004681
415,000000	0,004513
414,000000	0,004521
413,000000	0,004488
412,000000	0,004518
411,000000	0,004312
410,000000	0,004406
409,000000	0,004393
408,000000	0,004386
407,000000	0,004420
406,000000	0,004244
405,000000	0,004321
404,000000	0,004280
403,000000	0,004192
402,000000	0,004226
401,000000	0,004279
400,000000	0,004233
399,000000	0,004416
398,000000	0,004176
397,000000	0,004143
396,000000	0,004364
395,000000	0,004268
394,000000	0,004456
393,000000	0,004436
392,000000	0,004509
391,000000	0,004553
390,000000	0,004490
389,000000	0,004619
388,000000	0,004666
387,000000	0,004693
386,000000	0,004703
385,000000	0,004915
384,000000	0,004579
383,000000	0,004639
382,000000	0,003999
381,000000	0,004117
380,000000	0,004327
379,000000	0,004321
378,000000	0,004530
377,000000	0,004601
376,000000	0,004451
375,000000	0,004667
374,000000	0,004630
373,000000	0,004628
372,000000	0,005017
371,000000	0,004998
370,000000	0,005085
369,000000	0,005183
368,000000	0,005236
367,000000	0,005791
366,000000	0,005426
365,000000	0,005848
364,000000	0,005867
363,000000	0,006306
362,000000	0,006536
361,000000	0,006777
360,000000	0,007142
359,000000	0,007010
358,000000	0,007400
357,000000	0,007829
356,000000	0,008047
355,000000	0,008020
354,000000	0,008243
353,000000	0,008774
352,000000	0,009016
351,000000	0,009464
350,000000	0,009652
349,000000	0,010357
348,000000	0,010913
347,000000	0,011743
346,000000	0,012276
345,000000	0,013681
344,000000	0,014703
343,000000	0,015856
342,000000	0,017623
341,000000	0,019414
340,000000	0,021264
339,000000	0,023188
338,000000	0,024875
337,000000	0,026918
336,000000	0,028342
335,000000	0,030054
334,000000	0,031511
333,000000	0,032709
332,000000	0,033749
331,000000	0,035183
330,000000	0,037069
329,000000	0,038418
328,000000	0,040105
327,000000	0,041694
326,000000	0,043831
325,000000	0,045929
324,000000	0,047843
323,000000	0,050092
322,000000	0,051662
321,000000	0,054011
320,000000	0,056237
319,000000	0,058645
318,000000	0,061788
317,000000	0,064823
316,000000	0,068749
315,000000	0,072518
314,000000	0,077062
313,000000	0,081333
312,000000	0,085534
311,000000	0,089139
310,000000	0,091448
309,000000	0,092720
308,000000	0,092418
307,000000	0,091779
306,000000	0,090774
305,000000	0,089688
304,000000	0,087979
303,000000	0,086432
302,000000	0,084286
301,000000	0,082374
300,000000	0,080393
299,000000	0,078560
298,000000	0,076495
297,000000	0,073447
296,000000	0,072314
295,000000	0,069534
294,000000	0,067043
293,000000	0,066796
292,000000	0,064187
291,000000	0,064873
290,000000	0,064282
289,000000	0,063256
288,000000	0,058933
287,000000	0,057700
286,000000	0,072140
285,000000	0,073198
284,000000	0,096215
283,000000	0,062588
282,000000	0,008581
281,000000	0,050692
280,000000	0,055791
279,000000	0,097944
278,000000	0,146763
277,000000	0,067148
276,000000	0,069111
275,000000	0,025230
274,000000	0,053645
273,000000	0,075466
272,000000	0,037942
271,000000	0,133251
270,000000	0,039445
269,000000	-0,012561
268,000000	0,077614
267,000000	0,038150
266,000000	0,091004
265,000000	0,074222
264,000000	0,035477
263,000000	0,079693
262,000000	-0,041660
261,000000	-0,031239
260,000000	-0,021616
259,000000	-0,009272
258,000000	0,204080
257,000000	0,147785
256,000000	0,154968
255,000000	-0,061338
254,000000	-0,005323
253,000000	0,192060
252,000000	0,185538
251,000000	0,238460
250,000000	0,003628
249,000000	0,097494
248,000000	0,025657
247,000000	0,111724
246,000000	0,130533
245,000000	0,194320
244,000000	0,116855
243,000000	0,260056
242,000000	-0,022233
241,000000	0,103030
240,000000	0,121882
239,000000	0,155246
238,000000	-0,157161
237,000000	0,056628
236,000000	0,151211
235,000000	-0,214515
234,000000	0,151310
233,000000	0,153913
232,000000	0,477194
231,000000	-0,476460
230,000000	0,234790
229,000000	0,117359
228,000000	-0,019506
227,000000	0,224436
226,000000	0,022584
225,000000	-0,069760
224,000000	0,022915
223,000000	0,067007
222,000000	0,114833
221,000000	0,224125
220,000000	0,331178
219,000000	0,284684
218,000000	0,017780
217,000000	0,032890
216,000000	0,306419
215,000000	0,218333
214,000000	0,079219
213,000000	-0,219388
212,000000	0,159530
211,000000	-0,073234
210,000000	0,308860
209,000000	0,002101
208,000000	0,297037
207,000000	0,173693
206,000000	0,419064
205,000000	-0,188369
204,000000	0,122347
203,000000	0,167507
202,000000	-0,201212
201,000000	0,248156
200,000000	-0,249799
