PE UV       SUBTECH     SPECTRUM    ASCII       PEDS        4.00        
   -1
DOTC diluido 1_3.Sample.Raw.asc
26/09/02
15:06:31.00
26/09/02
15:06:31.00
Analyst

200,000000
1
Lambda 35
502S09021304
PerkinElmer UV WinLab 6.0.2.0723 / Lambda35 1.27

480
2
1
0
0
Both on
1
1
1
None
0
0
0
0
 
 
0
0
0
0
0
 
 
 
0
 
0
326
0
 
0
 
 
 
0
0
0
 
0
 
 
 
0
 
 
0
0
0
0
0
 
 
 
 
0
0
#HDR
-1
-1
#GR
nm
A
1.0
0.0
900,000000
-1,000000
701
8
3,056524
-0,625518
#DATA
900,000000	-0,000811
899,000000	-0,000752
898,000000	-0,000819
897,000000	-0,000801
896,000000	-0,000797
895,000000	-0,000719
894,000000	-0,000768
893,000000	-0,000723
892,000000	-0,000768
891,000000	-0,000846
890,000000	-0,000697
889,000000	-0,000652
888,000000	-0,000611
887,000000	-0,000659
886,000000	-0,000655
885,000000	-0,000669
884,000000	-0,000635
883,000000	-0,000631
882,000000	-0,000738
881,000000	-0,000626
880,000000	-0,000699
879,000000	-0,000676
878,000000	-0,000649
877,000000	-0,000778
876,000000	-0,000748
875,000000	-0,000751
874,000000	-0,000709
873,000000	-0,000658
872,000000	-0,000738
871,000000	-0,000763
870,000000	-0,000744
869,000000	-0,000660
868,000000	-0,000688
867,000000	-0,000779
866,000000	-0,000669
865,000000	-0,000731
864,000000	-0,000632
863,000000	-0,000588
862,000000	-0,000602
861,000000	-0,000704
860,000000	-0,000809
859,000000	-0,000699
858,000000	-0,000692
857,000000	-0,000673
856,000000	-0,000775
855,000000	-0,000782
854,000000	-0,000749
853,000000	-0,000708
852,000000	-0,000621
851,000000	-0,000693
850,000000	-0,000718
849,000000	-0,000718
848,000000	-0,000736
847,000000	-0,000710
846,000000	-0,000685
845,000000	-0,000692
844,000000	-0,000713
843,000000	-0,000612
842,000000	-0,000579
841,000000	-0,000698
840,000000	-0,000633
839,000000	-0,000633
838,000000	-0,000658
837,000000	-0,000658
836,000000	-0,000611
835,000000	-0,000622
834,000000	-0,000539
833,000000	-0,000550
832,000000	-0,000590
831,000000	-0,000651
830,000000	-0,000582
829,000000	-0,000503
828,000000	-0,000637
827,000000	-0,000572
826,000000	-0,000536
825,000000	-0,000601
824,000000	-0,000569
823,000000	-0,000652
822,000000	-0,000540
821,000000	-0,000511
820,000000	-0,000424
819,000000	-0,000486
818,000000	-0,000653
817,000000	-0,000385
816,000000	-0,000472
815,000000	-0,000530
814,000000	-0,000469
813,000000	-0,000385
812,000000	-0,000331
811,000000	-0,000397
810,000000	-0,000397
809,000000	-0,000433
808,000000	-0,000350
807,000000	-0,000317
806,000000	-0,000292
805,000000	-0,000303
804,000000	-0,000168
803,000000	-0,000208
802,000000	-0,000161
801,000000	-0,000190
800,000000	-0,000110
799,000000	0,000033
798,000000	-0,000022
797,000000	0,000143
796,000000	0,000077
795,000000	0,000261
794,000000	0,000518
793,000000	0,000613
792,000000	0,000617
791,000000	0,000702
790,000000	0,000817
789,000000	0,001043
788,000000	0,001202
787,000000	0,001362
786,000000	0,001463
785,000000	0,001667
784,000000	0,001735
783,000000	0,001903
782,000000	0,002101
781,000000	0,002269
780,000000	0,002490
779,000000	0,002673
778,000000	0,003040
777,000000	0,003378
776,000000	0,003663
775,000000	0,003935
774,000000	0,004337
773,000000	0,004795
772,000000	0,005304
771,000000	0,005755
770,000000	0,006275
769,000000	0,006970
768,000000	0,007531
767,000000	0,008528
766,000000	0,009324
765,000000	0,010263
764,000000	0,011460
763,000000	0,012698
762,000000	0,014027
761,000000	0,015527
760,000000	0,017190
759,000000	0,019064
758,000000	0,021166
757,000000	0,023399
756,000000	0,026014
755,000000	0,028905
754,000000	0,032054
753,000000	0,035439
752,000000	0,039406
751,000000	0,043516
750,000000	0,048189
749,000000	0,053419
748,000000	0,059063
747,000000	0,065170
746,000000	0,071999
745,000000	0,079452
744,000000	0,087539
743,000000	0,096328
742,000000	0,105827
741,000000	0,116110
740,000000	0,127620
739,000000	0,139824
738,000000	0,153396
737,000000	0,167782
736,000000	0,183661
735,000000	0,201080
734,000000	0,219741
733,000000	0,240298
732,000000	0,262280
731,000000	0,286666
730,000000	0,313389
729,000000	0,342969
728,000000	0,375077
727,000000	0,410101
726,000000	0,448624
725,000000	0,490361
724,000000	0,535961
723,000000	0,585429
722,000000	0,639420
721,000000	0,698453
720,000000	0,762664
719,000000	0,832269
718,000000	0,906964
717,000000	0,987352
716,000000	1,072852
715,000000	1,164258
714,000000	1,260535
713,000000	1,361023
712,000000	1,466342
711,000000	1,576873
710,000000	1,690399
709,000000	1,805562
708,000000	1,920142
707,000000	2,032267
706,000000	2,142068
705,000000	2,245612
704,000000	2,340685
703,000000	2,426519
702,000000	2,504530
701,000000	2,570317
700,000000	2,628006
699,000000	2,670556
698,000000	2,713759
697,000000	2,744496
696,000000	2,768404
695,000000	2,796133
694,000000	2,810655
693,000000	2,825680
692,000000	2,841198
691,000000	2,841098
690,000000	2,859942
689,000000	2,871135
688,000000	2,873886
687,000000	2,876576
686,000000	2,888283
685,000000	2,891095
684,000000	2,955361
683,000000	3,056524
682,000000	3,051970
681,000000	3,043289
680,000000	3,043139
679,000000	3,018111
678,000000	2,994487
677,000000	2,972072
676,000000	2,937217
675,000000	2,895612
674,000000	2,852198
673,000000	2,802642
672,000000	2,736594
671,000000	2,673772
670,000000	2,598400
669,000000	2,523719
668,000000	2,444599
667,000000	2,361360
666,000000	2,283956
665,000000	2,203160
664,000000	2,126032
663,000000	2,049214
662,000000	1,974978
661,000000	1,905307
660,000000	1,838101
659,000000	1,774461
658,000000	1,717543
657,000000	1,663360
656,000000	1,613071
655,000000	1,566472
654,000000	1,524115
653,000000	1,485056
652,000000	1,449661
651,000000	1,417201
650,000000	1,388781
649,000000	1,363100
648,000000	1,339826
647,000000	1,319383
646,000000	1,300598
645,000000	1,283593
644,000000	1,268236
643,000000	1,254094
642,000000	1,240819
641,000000	1,228691
640,000000	1,217118
639,000000	1,205776
638,000000	1,194673
637,000000	1,183417
636,000000	1,172182
635,000000	1,160546
634,000000	1,148475
633,000000	1,136145
632,000000	1,122704
631,000000	1,108940
630,000000	1,094340
629,000000	1,078904
628,000000	1,063235
627,000000	1,046692
626,000000	1,029438
625,000000	1,011808
624,000000	0,993080
623,000000	0,973822
622,000000	0,954329
621,000000	0,934390
620,000000	0,914004
619,000000	0,893410
618,000000	0,872850
617,000000	0,852277
616,000000	0,831584
615,000000	0,810722
614,000000	0,789943
613,000000	0,769221
612,000000	0,749007
611,000000	0,728984
610,000000	0,709257
609,000000	0,690338
608,000000	0,671689
607,000000	0,653456
606,000000	0,635694
605,000000	0,618650
604,000000	0,601844
603,000000	0,585491
602,000000	0,570160
601,000000	0,555202
600,000000	0,541051
599,000000	0,527520
598,000000	0,514832
597,000000	0,502260
596,000000	0,490322
595,000000	0,478972
594,000000	0,468005
593,000000	0,457714
592,000000	0,447639
591,000000	0,438239
590,000000	0,429337
589,000000	0,420636
588,000000	0,412099
587,000000	0,403839
586,000000	0,395846
585,000000	0,388207
584,000000	0,380413
583,000000	0,372806
582,000000	0,365488
581,000000	0,358262
580,000000	0,351016
579,000000	0,343843
578,000000	0,336728
577,000000	0,329611
576,000000	0,322511
575,000000	0,315552
574,000000	0,308463
573,000000	0,301421
572,000000	0,294559
571,000000	0,287689
570,000000	0,280857
569,000000	0,274001
568,000000	0,267246
567,000000	0,260469
566,000000	0,253727
565,000000	0,246988
564,000000	0,240356
563,000000	0,233836
562,000000	0,227517
561,000000	0,221139
560,000000	0,215054
559,000000	0,208668
558,000000	0,202299
557,000000	0,196393
556,000000	0,190630
555,000000	0,184891
554,000000	0,179393
553,000000	0,174045
552,000000	0,169046
551,000000	0,163893
550,000000	0,158965
549,000000	0,154298
548,000000	0,149619
547,000000	0,145049
546,000000	0,140751
545,000000	0,136442
544,000000	0,132303
543,000000	0,128236
542,000000	0,124516
541,000000	0,120843
540,000000	0,117272
539,000000	0,113777
538,000000	0,110265
537,000000	0,106943
536,000000	0,103695
535,000000	0,100499
534,000000	0,097492
533,000000	0,094607
532,000000	0,091786
531,000000	0,089079
530,000000	0,086449
529,000000	0,083916
528,000000	0,081284
527,000000	0,078942
526,000000	0,076519
525,000000	0,074228
524,000000	0,071974
523,000000	0,069767
522,000000	0,067531
521,000000	0,065395
520,000000	0,063503
519,000000	0,061511
518,000000	0,059430
517,000000	0,057610
516,000000	0,055723
515,000000	0,053979
514,000000	0,052279
513,000000	0,050533
512,000000	0,048803
511,000000	0,047255
510,000000	0,045667
509,000000	0,044153
508,000000	0,042556
507,000000	0,041190
506,000000	0,039854
505,000000	0,038472
504,000000	0,037102
503,000000	0,035843
502,000000	0,034669
501,000000	0,033555
500,000000	0,032347
499,000000	0,031339
498,000000	0,030270
497,000000	0,029313
496,000000	0,028331
495,000000	0,027414
494,000000	0,026584
493,000000	0,025751
492,000000	0,024996
491,000000	0,024107
490,000000	0,023392
489,000000	0,022720
488,000000	0,021937
487,000000	0,021249
486,000000	0,020559
485,000000	0,019947
484,000000	0,019357
483,000000	0,018696
482,000000	0,018159
481,000000	0,017509
480,000000	0,017056
479,000000	0,016486
478,000000	0,015953
477,000000	0,015392
476,000000	0,014905
475,000000	0,014464
474,000000	0,014039
473,000000	0,013577
472,000000	0,013249
471,000000	0,012922
470,000000	0,012460
469,000000	0,012156
468,000000	0,011802
467,000000	0,011501
466,000000	0,011250
465,000000	0,010882
464,000000	0,010678
463,000000	0,010477
462,000000	0,010124
461,000000	0,009887
460,000000	0,009671
459,000000	0,009640
458,000000	0,009408
457,000000	0,009213
456,000000	0,009132
455,000000	0,008843
454,000000	0,008812
453,000000	0,008545
452,000000	0,008531
451,000000	0,008431
450,000000	0,008402
449,000000	0,008172
448,000000	0,008254
447,000000	0,008102
446,000000	0,008111
445,000000	0,008105
444,000000	0,008041
443,000000	0,008007
442,000000	0,007956
441,000000	0,008096
440,000000	0,008012
439,000000	0,008184
438,000000	0,008170
437,000000	0,008266
436,000000	0,008314
435,000000	0,008371
434,000000	0,008680
433,000000	0,008751
432,000000	0,008968
431,000000	0,009262
430,000000	0,009525
429,000000	0,009859
428,000000	0,010149
427,000000	0,010446
426,000000	0,010838
425,000000	0,011373
424,000000	0,011806
423,000000	0,012152
422,000000	0,012788
421,000000	0,013187
420,000000	0,013763
419,000000	0,014318
418,000000	0,014737
417,000000	0,015330
416,000000	0,015856
415,000000	0,016392
414,000000	0,016876
413,000000	0,017434
412,000000	0,017938
411,000000	0,018422
410,000000	0,018876
409,000000	0,019359
408,000000	0,019861
407,000000	0,020430
406,000000	0,020899
405,000000	0,021654
404,000000	0,022307
403,000000	0,023147
402,000000	0,024328
401,000000	0,025447
400,000000	0,027048
399,000000	0,028809
398,000000	0,030698
397,000000	0,033072
396,000000	0,035904
395,000000	0,039017
394,000000	0,042688
393,000000	0,046641
392,000000	0,050967
391,000000	0,055507
390,000000	0,060439
389,000000	0,065393
388,000000	0,070464
387,000000	0,075444
386,000000	0,080053
385,000000	0,084353
384,000000	0,089369
383,000000	0,092020
382,000000	0,094084
381,000000	0,095526
380,000000	0,095646
379,000000	0,095382
378,000000	0,094645
377,000000	0,093425
376,000000	0,091997
375,000000	0,090510
374,000000	0,088761
373,000000	0,087637
372,000000	0,086684
371,000000	0,085769
370,000000	0,085330
369,000000	0,085204
368,000000	0,085113
367,000000	0,085062
366,000000	0,085043
365,000000	0,085129
364,000000	0,084922
363,000000	0,084875
362,000000	0,084402
361,000000	0,084017
360,000000	0,083222
359,000000	0,082376
358,000000	0,081292
357,000000	0,081105
356,000000	0,080481
355,000000	0,079967
354,000000	0,080732
353,000000	0,082051
352,000000	0,084368
351,000000	0,087926
350,000000	0,093039
349,000000	0,100180
348,000000	0,109697
347,000000	0,121747
346,000000	0,136481
345,000000	0,154899
344,000000	0,177660
343,000000	0,205377
342,000000	0,238302
341,000000	0,273721
340,000000	0,308899
339,000000	0,335990
338,000000	0,350600
337,000000	0,349016
336,000000	0,333601
335,000000	0,311051
334,000000	0,286055
333,000000	0,264667
332,000000	0,247619
331,000000	0,236027
330,000000	0,228619
329,000000	0,223630
328,000000	0,219735
327,000000	0,216607
326,000000	0,213081
325,000000	0,209068
324,000000	0,203784
323,000000	0,198480
322,000000	0,192277
321,000000	0,185745
320,000000	0,179653
319,000000	0,173603
318,000000	0,168968
317,000000	0,164959
316,000000	0,161235
315,000000	0,158462
314,000000	0,156604
313,000000	0,154223
312,000000	0,151645
311,000000	0,150310
310,000000	0,149094
309,000000	0,147209
308,000000	0,145952
307,000000	0,144216
306,000000	0,143967
305,000000	0,143392
304,000000	0,142989
303,000000	0,142754
302,000000	0,143045
301,000000	0,143443
300,000000	0,144932
299,000000	0,145432
298,000000	0,146529
297,000000	0,146457
296,000000	0,148637
295,000000	0,149908
294,000000	0,150476
293,000000	0,150315
292,000000	0,152439
291,000000	0,156593
290,000000	0,158493
289,000000	0,163259
288,000000	0,159771
287,000000	0,158759
286,000000	0,150814
285,000000	0,177836
284,000000	0,142478
283,000000	0,112177
282,000000	0,138284
281,000000	0,155789
280,000000	0,147193
279,000000	0,128511
278,000000	0,090815
277,000000	0,134109
276,000000	0,057573
275,000000	0,099473
274,000000	0,144201
273,000000	0,060498
272,000000	0,096538
271,000000	0,224900
270,000000	0,022797
269,000000	0,140613
268,000000	0,305206
267,000000	0,123498
266,000000	0,084830
265,000000	0,047074
264,000000	0,158407
263,000000	0,155906
262,000000	0,048352
261,000000	-0,022629
260,000000	0,089469
259,000000	0,079150
258,000000	0,226337
257,000000	0,208089
256,000000	0,203100
255,000000	-0,037913
254,000000	-0,016632
253,000000	0,197046
252,000000	0,230679
251,000000	0,059027
250,000000	0,051282
249,000000	0,276849
248,000000	0,124049
247,000000	0,319044
246,000000	0,159382
245,000000	0,217158
244,000000	0,254013
243,000000	0,250571
242,000000	0,061398
241,000000	0,067649
240,000000	0,111046
239,000000	0,104531
238,000000	-0,085908
237,000000	0,189372
236,000000	0,437056
235,000000	-0,041706
234,000000	0,072374
233,000000	0,246268
232,000000	0,486045
231,000000	-0,344416
230,000000	0,134651
229,000000	0,141667
228,000000	-0,023592
227,000000	0,186099
226,000000	0,020561
225,000000	0,006167
224,000000	0,060376
223,000000	0,066433
222,000000	0,052404
221,000000	0,138065
220,000000	0,250605
219,000000	0,121699
218,000000	-0,014524
217,000000	-0,003327
216,000000	0,429185
215,000000	0,391475
214,000000	0,136133
213,000000	-0,552295
212,000000	-0,027716
211,000000	-0,175086
210,000000	0,641938
209,000000	-0,045775
208,000000	0,239279
207,000000	0,120969
206,000000	0,271574
205,000000	0,058701
204,000000	-0,086032
203,000000	0,688750
202,000000	-0,586148
201,000000	0,072752
200,000000	-0,625518
