PE UV       SUBTECH     SPECTRUM    ASCII       PEDS        4.00        
   -1
DOTC puro.Sample.Raw.asc
26/09/02
14:55:36.00
26/09/02
14:55:36.00
Analyst

200,000000
1
Lambda 35
502S09021304
PerkinElmer UV WinLab 6.0.2.0723 / Lambda35 1.27

480
2
1
0
0
Both on
1
1
1
None
0
0
0
0
 
 
0
0
0
0
0
 
 
 
0
 
0
326
0
 
0
 
 
 
0
0
0
 
0
 
 
 
0
 
 
0
0
0
0
0
 
 
 
 
0
0
#HDR
-1
-1
#GR
nm
A
1.0
0.0
900,000000
-1,000000
701
8
3,617850
-0,747436
#DATA
900,000000	0,000376
899,000000	0,000410
898,000000	0,000350
897,000000	0,000448
896,000000	0,000511
895,000000	0,000586
894,000000	0,000508
893,000000	0,000620
892,000000	0,000649
891,000000	0,000545
890,000000	0,000560
889,000000	0,000608
888,000000	0,000612
887,000000	0,000686
886,000000	0,000712
885,000000	0,000663
884,000000	0,000621
883,000000	0,000691
882,000000	0,000624
881,000000	0,000601
880,000000	0,000715
879,000000	0,000614
878,000000	0,000672
877,000000	0,000605
876,000000	0,000627
875,000000	0,000575
874,000000	0,000681
873,000000	0,000644
872,000000	0,000596
871,000000	0,000643
870,000000	0,000628
869,000000	0,000580
868,000000	0,000642
867,000000	0,000649
866,000000	0,000637
865,000000	0,000633
864,000000	0,000699
863,000000	0,000706
862,000000	0,000723
861,000000	0,000522
860,000000	0,000595
859,000000	0,000602
858,000000	0,000540
857,000000	0,000587
856,000000	0,000477
855,000000	0,000513
854,000000	0,000553
853,000000	0,000673
852,000000	0,000771
851,000000	0,000654
850,000000	0,000574
849,000000	0,000686
848,000000	0,000650
847,000000	0,000653
846,000000	0,000675
845,000000	0,000682
844,000000	0,000773
843,000000	0,000761
842,000000	0,000743
841,000000	0,000754
840,000000	0,000808
839,000000	0,000808
838,000000	0,000837
837,000000	0,000815
836,000000	0,000790
835,000000	0,000844
834,000000	0,000989
833,000000	0,000822
832,000000	0,000862
831,000000	0,000949
830,000000	0,001022
829,000000	0,000950
828,000000	0,000928
827,000000	0,001030
826,000000	0,000976
825,000000	0,001019
824,000000	0,001034
823,000000	0,001064
822,000000	0,001056
821,000000	0,001253
820,000000	0,001246
819,000000	0,001254
818,000000	0,001160
817,000000	0,001309
816,000000	0,001353
815,000000	0,001354
814,000000	0,001500
813,000000	0,001501
812,000000	0,001691
811,000000	0,001670
810,000000	0,001704
809,000000	0,001712
808,000000	0,001816
807,000000	0,001985
806,000000	0,001989
805,000000	0,002141
804,000000	0,002259
803,000000	0,002338
802,000000	0,002391
801,000000	0,002580
800,000000	0,002709
799,000000	0,002880
798,000000	0,003055
797,000000	0,003264
796,000000	0,003428
795,000000	0,003770
794,000000	0,004187
793,000000	0,004512
792,000000	0,004786
791,000000	0,005019
790,000000	0,005335
789,000000	0,005794
788,000000	0,006202
787,000000	0,006696
786,000000	0,007117
785,000000	0,007635
784,000000	0,008057
783,000000	0,008707
782,000000	0,009214
781,000000	0,009942
780,000000	0,010704
779,000000	0,011542
778,000000	0,012430
777,000000	0,013472
776,000000	0,014471
775,000000	0,015627
774,000000	0,017025
773,000000	0,018325
772,000000	0,019937
771,000000	0,021592
770,000000	0,023343
769,000000	0,025554
768,000000	0,027778
767,000000	0,030403
766,000000	0,033343
765,000000	0,036610
764,000000	0,040437
763,000000	0,044500
762,000000	0,049048
761,000000	0,054090
760,000000	0,059749
759,000000	0,066010
758,000000	0,073097
757,000000	0,080863
756,000000	0,089540
755,000000	0,099230
754,000000	0,109817
753,000000	0,121565
752,000000	0,134638
751,000000	0,148952
750,000000	0,164911
749,000000	0,182423
748,000000	0,201509
747,000000	0,222509
746,000000	0,245574
745,000000	0,270847
744,000000	0,298375
743,000000	0,328443
742,000000	0,360645
741,000000	0,395714
740,000000	0,434597
739,000000	0,476363
738,000000	0,522107
737,000000	0,571801
736,000000	0,625784
735,000000	0,684246
734,000000	0,747672
733,000000	0,817363
732,000000	0,892282
731,000000	0,974669
730,000000	1,065170
729,000000	1,164767
728,000000	1,272349
727,000000	1,388982
726,000000	1,515698
725,000000	1,650053
724,000000	1,793129
723,000000	1,942008
722,000000	2,096842
721,000000	2,252142
720,000000	2,397544
719,000000	2,528403
718,000000	2,633952
717,000000	2,714635
716,000000	2,768993
715,000000	2,801358
714,000000	2,823558
713,000000	2,846902
712,000000	2,857523
711,000000	2,871325
710,000000	2,876910
709,000000	2,891385
708,000000	2,900256
707,000000	2,903231
706,000000	2,918631
705,000000	2,921633
704,000000	2,937744
703,000000	2,940964
702,000000	2,954388
701,000000	2,964712
700,000000	2,968157
699,000000	2,968012
698,000000	2,978656
697,000000	2,989668
696,000000	2,997057
695,000000	3,008489
694,000000	3,016266
693,000000	3,016140
692,000000	3,028080
691,000000	3,027980
690,000000	3,040230
689,000000	3,044378
688,000000	3,048542
687,000000	3,052667
686,000000	3,057001
685,000000	3,056828
684,000000	3,201012
683,000000	3,439375
682,000000	3,507902
681,000000	3,483688
680,000000	3,520260
679,000000	3,507466
678,000000	3,495089
677,000000	3,519774
676,000000	3,559799
675,000000	3,482746
674,000000	3,532341
673,000000	3,559254
672,000000	3,559099
671,000000	3,573228
670,000000	3,545036
669,000000	3,572937
668,000000	3,544754
667,000000	3,518301
666,000000	3,587227
665,000000	3,558135
664,000000	3,572155
663,000000	3,617850
662,000000	3,571942
661,000000	3,571825
660,000000	3,601796
659,000000	3,530336
658,000000	3,601610
657,000000	3,601451
656,000000	3,601280
655,000000	3,616981
654,000000	3,585853
653,000000	3,585783
652,000000	3,616759
651,000000	3,542580
650,000000	3,600588
649,000000	3,600518
648,000000	3,585169
647,000000	3,556131
646,000000	3,570344
645,000000	3,542320
644,000000	3,528741
643,000000	3,503187
642,000000	3,515656
641,000000	3,515570
640,000000	3,515586
639,000000	3,515531
638,000000	3,490606
637,000000	3,490497
636,000000	3,466938
635,000000	3,413116
634,000000	3,433758
633,000000	3,444443
632,000000	3,444302
631,000000	3,423059
630,000000	3,392951
629,000000	3,364883
628,000000	3,347033
627,000000	3,297678
626,000000	3,289886
625,000000	3,253322
624,000000	3,213072
623,000000	3,188151
622,000000	3,147735
621,000000	3,076766
620,000000	3,040884
619,000000	2,976808
618,000000	2,934279
617,000000	2,874611
616,000000	2,811681
615,000000	2,750089
614,000000	2,696113
613,000000	2,625886
612,000000	2,561239
611,000000	2,498723
610,000000	2,437531
609,000000	2,376263
608,000000	2,315197
607,000000	2,255198
606,000000	2,196214
605,000000	2,140001
604,000000	2,083407
603,000000	2,027706
602,000000	1,975093
601,000000	1,926341
600,000000	1,877730
599,000000	1,832489
598,000000	1,788705
597,000000	1,746159
596,000000	1,704895
595,000000	1,665862
594,000000	1,628739
593,000000	1,592600
592,000000	1,558513
591,000000	1,526323
590,000000	1,495526
589,000000	1,465268
588,000000	1,436267
587,000000	1,407433
586,000000	1,380203
585,000000	1,353255
584,000000	1,326637
583,000000	1,300417
582,000000	1,274896
581,000000	1,249684
580,000000	1,224983
579,000000	1,199906
578,000000	1,175693
577,000000	1,151039
576,000000	1,126106
575,000000	1,101927
574,000000	1,077504
573,000000	1,052916
572,000000	1,028975
571,000000	1,005059
570,000000	0,981353
569,000000	0,957762
568,000000	0,934297
567,000000	0,910792
566,000000	0,887411
565,000000	0,864255
564,000000	0,841018
563,000000	0,818693
562,000000	0,796243
561,000000	0,774551
560,000000	0,753212
559,000000	0,731011
558,000000	0,708847
557,000000	0,688455
556,000000	0,668538
555,000000	0,648944
554,000000	0,629799
553,000000	0,611214
552,000000	0,593326
551,000000	0,575616
550,000000	0,558722
549,000000	0,542391
548,000000	0,526191
547,000000	0,510472
546,000000	0,495410
545,000000	0,480529
544,000000	0,466438
543,000000	0,452606
542,000000	0,439441
541,000000	0,426829
540,000000	0,414333
539,000000	0,402202
538,000000	0,390359
537,000000	0,378981
536,000000	0,367729
535,000000	0,356910
534,000000	0,346561
533,000000	0,336420
532,000000	0,326781
531,000000	0,317477
530,000000	0,308250
529,000000	0,299287
528,000000	0,290493
527,000000	0,282033
526,000000	0,273825
525,000000	0,265634
524,000000	0,257787
523,000000	0,250155
522,000000	0,242724
521,000000	0,235584
520,000000	0,228440
519,000000	0,221434
518,000000	0,214585
517,000000	0,208129
516,000000	0,201658
515,000000	0,195357
514,000000	0,189331
513,000000	0,183506
512,000000	0,177668
511,000000	0,172006
510,000000	0,166414
509,000000	0,161117
508,000000	0,155859
507,000000	0,150843
506,000000	0,146010
505,000000	0,141366
504,000000	0,136757
503,000000	0,132344
502,000000	0,128286
501,000000	0,124153
500,000000	0,120191
499,000000	0,116522
498,000000	0,112938
497,000000	0,109453
496,000000	0,106140
495,000000	0,102974
494,000000	0,099822
493,000000	0,096986
492,000000	0,094122
491,000000	0,091408
490,000000	0,088675
489,000000	0,086122
488,000000	0,083563
487,000000	0,081208
486,000000	0,078857
485,000000	0,076618
484,000000	0,074316
483,000000	0,072281
482,000000	0,070225
481,000000	0,068137
480,000000	0,066143
479,000000	0,064287
478,000000	0,062381
477,000000	0,060450
476,000000	0,058847
475,000000	0,057335
474,000000	0,055568
473,000000	0,054215
472,000000	0,052750
471,000000	0,051472
470,000000	0,050111
469,000000	0,048853
468,000000	0,047766
467,000000	0,046478
466,000000	0,045641
465,000000	0,044526
464,000000	0,043619
463,000000	0,042746
462,000000	0,041913
461,000000	0,041116
460,000000	0,040340
459,000000	0,039682
458,000000	0,039118
457,000000	0,038478
456,000000	0,037947
455,000000	0,037281
454,000000	0,036870
453,000000	0,036434
452,000000	0,035952
451,000000	0,035550
450,000000	0,035266
449,000000	0,035028
448,000000	0,034828
447,000000	0,034517
446,000000	0,034228
445,000000	0,034145
444,000000	0,034062
443,000000	0,034020
442,000000	0,033942
441,000000	0,034200
440,000000	0,034001
439,000000	0,034154
438,000000	0,034417
437,000000	0,034722
436,000000	0,034943
435,000000	0,035506
434,000000	0,035998
433,000000	0,036581
432,000000	0,037309
431,000000	0,038187
430,000000	0,039117
429,000000	0,040190
428,000000	0,041243
427,000000	0,042485
426,000000	0,043803
425,000000	0,045425
424,000000	0,046996
423,000000	0,048683
422,000000	0,050561
421,000000	0,052315
420,000000	0,054175
419,000000	0,056089
418,000000	0,057963
417,000000	0,059896
416,000000	0,061741
415,000000	0,063617
414,000000	0,065438
413,000000	0,067316
412,000000	0,069110
411,000000	0,070772
410,000000	0,072537
409,000000	0,074303
408,000000	0,076054
407,000000	0,078046
406,000000	0,079956
405,000000	0,082374
404,000000	0,085042
403,000000	0,088152
402,000000	0,091870
401,000000	0,096179
400,000000	0,101366
399,000000	0,107565
398,000000	0,114564
397,000000	0,122786
396,000000	0,132487
395,000000	0,143400
394,000000	0,155900
393,000000	0,169670
392,000000	0,184574
391,000000	0,200710
390,000000	0,217643
389,000000	0,235007
388,000000	0,252587
387,000000	0,269781
386,000000	0,286223
385,000000	0,300840
384,000000	0,316832
383,000000	0,327154
382,000000	0,334406
381,000000	0,339107
380,000000	0,340741
379,000000	0,339295
378,000000	0,336851
377,000000	0,332007
376,000000	0,326432
375,000000	0,321209
374,000000	0,315441
373,000000	0,311345
372,000000	0,307708
371,000000	0,304926
370,000000	0,303453
369,000000	0,302517
368,000000	0,302382
367,000000	0,302999
366,000000	0,302536
365,000000	0,302594
364,000000	0,302396
363,000000	0,301437
362,000000	0,300000
361,000000	0,297993
360,000000	0,295549
359,000000	0,292409
358,000000	0,289811
357,000000	0,287690
356,000000	0,285961
355,000000	0,285315
354,000000	0,286833
353,000000	0,291293
352,000000	0,299292
351,000000	0,311429
350,000000	0,328964
349,000000	0,353735
348,000000	0,386201
347,000000	0,427254
346,000000	0,478489
345,000000	0,541113
344,000000	0,620240
343,000000	0,715085
342,000000	0,828635
341,000000	0,950035
340,000000	1,067695
339,000000	1,158021
338,000000	1,205885
337,000000	1,200640
336,000000	1,149626
335,000000	1,069752
334,000000	0,986449
333,000000	0,916011
332,000000	0,858460
331,000000	0,817238
330,000000	0,792644
329,000000	0,775079
328,000000	0,762293
327,000000	0,751194
326,000000	0,738962
325,000000	0,725456
324,000000	0,708783
323,000000	0,687652
322,000000	0,666683
321,000000	0,643769
320,000000	0,622265
319,000000	0,601736
318,000000	0,585463
317,000000	0,570720
316,000000	0,559553
315,000000	0,548383
314,000000	0,540789
313,000000	0,532965
312,000000	0,526171
311,000000	0,520522
310,000000	0,514173
309,000000	0,509037
308,000000	0,503929
307,000000	0,499451
306,000000	0,496839
305,000000	0,494755
304,000000	0,493826
303,000000	0,493775
302,000000	0,493939
301,000000	0,494681
300,000000	0,497905
299,000000	0,500746
298,000000	0,504189
297,000000	0,506769
296,000000	0,512010
295,000000	0,517955
294,000000	0,522168
293,000000	0,524144
292,000000	0,531577
291,000000	0,531851
290,000000	0,539963
289,000000	0,554012
288,000000	0,546294
287,000000	0,552867
286,000000	0,539244
285,000000	0,536166
284,000000	0,553388
283,000000	0,357156
282,000000	0,364785
281,000000	0,443737
280,000000	0,588712
279,000000	0,594061
278,000000	0,392569
277,000000	0,455214
276,000000	0,442770
275,000000	0,383473
274,000000	0,549239
273,000000	0,459507
272,000000	0,298660
271,000000	0,457851
270,000000	0,444555
269,000000	0,397711
268,000000	0,605088
267,000000	0,429202
266,000000	0,479682
265,000000	0,439911
264,000000	0,432945
263,000000	0,502052
262,000000	0,366138
261,000000	0,449511
260,000000	0,237491
259,000000	0,288823
258,000000	0,322578
257,000000	0,480773
256,000000	0,521554
255,000000	0,422867
254,000000	0,406398
253,000000	0,568481
252,000000	0,433050
251,000000	0,530983
250,000000	0,248336
249,000000	0,405565
248,000000	0,479213
247,000000	0,444908
246,000000	0,535990
245,000000	0,285914
244,000000	0,429717
243,000000	0,474753
242,000000	0,250992
241,000000	0,158293
240,000000	0,132011
239,000000	0,627652
238,000000	0,185928
237,000000	0,415146
236,000000	0,474696
235,000000	0,153921
234,000000	0,168722
233,000000	0,238087
232,000000	1,106763
231,000000	-0,246289
230,000000	0,327862
229,000000	1,327826
228,000000	0,307199
227,000000	0,106100
226,000000	0,336033
225,000000	0,436899
224,000000	0,546357
223,000000	0,303056
222,000000	0,331372
221,000000	0,467607
220,000000	0,862714
219,000000	0,192110
218,000000	0,006321
217,000000	-0,133332
216,000000	1,044205
215,000000	0,420775
214,000000	0,053043
213,000000	-0,028448
212,000000	0,699013
211,000000	-0,040136
210,000000	-0,382825
209,000000	-0,747436
208,000000	-0,120653
207,000000	0,875756
206,000000	0,468340
205,000000	0,519173
204,000000	0,244863
203,000000	0,168800
202,000000	0,048170
201,000000	0,990454
200,000000	0,314451
