PE UV       SUBTECH     SPECTRUM    ASCII       PEDS        4.00        
   -1
DOTC diluido 1_6.Sample.Raw.asc
26/09/02
15:13:30.00
26/09/02
15:13:30.00
Analyst

200,000000
1
Lambda 35
502S09021304
PerkinElmer UV WinLab 6.0.2.0723 / Lambda35 1.27

480
2
1
0
0
Both on
1
1
1
None
0
0
0
0
 
 
0
0
0
0
0
 
 
 
0
 
0
326
0
 
0
 
 
 
0
0
0
 
0
 
 
 
0
 
 
0
0
0
0
0
 
 
 
 
0
0
#HDR
-1
-1
#GR
nm
A
1.0
0.0
900,000000
-1,000000
701
8
1,770272
-0,979687
#DATA
900,000000	0,009294
899,000000	0,009339
898,000000	0,009300
897,000000	0,009224
896,000000	0,009301
895,000000	0,009329
894,000000	0,009258
893,000000	0,009372
892,000000	0,009447
891,000000	0,009262
890,000000	0,009416
889,000000	0,009292
888,000000	0,009316
887,000000	0,009373
886,000000	0,009284
885,000000	0,009268
884,000000	0,009384
883,000000	0,009385
882,000000	0,009587
881,000000	0,009718
880,000000	0,009653
879,000000	0,009611
878,000000	0,009639
877,000000	0,009552
876,000000	0,009577
875,000000	0,009613
874,000000	0,009631
873,000000	0,009668
872,000000	0,009633
871,000000	0,009600
870,000000	0,009616
869,000000	0,009524
868,000000	0,009595
867,000000	0,009568
866,000000	0,009564
865,000000	0,009466
864,000000	0,009549
863,000000	0,009535
862,000000	0,009471
861,000000	0,009452
860,000000	0,009402
859,000000	0,009478
858,000000	0,009489
857,000000	0,009539
856,000000	0,009480
855,000000	0,009446
854,000000	0,009467
853,000000	0,009513
852,000000	0,009468
851,000000	0,009502
850,000000	0,009425
849,000000	0,009436
848,000000	0,009414
847,000000	0,009482
846,000000	0,009482
845,000000	0,009343
844,000000	0,009393
843,000000	0,009445
842,000000	0,009535
841,000000	0,009409
840,000000	0,009555
839,000000	0,009571
838,000000	0,009652
837,000000	0,009508
836,000000	0,009442
835,000000	0,009488
834,000000	0,009546
833,000000	0,009473
832,000000	0,009478
831,000000	0,009449
830,000000	0,009483
829,000000	0,009514
828,000000	0,009578
827,000000	0,009483
826,000000	0,009397
825,000000	0,009417
824,000000	0,009459
823,000000	0,009363
822,000000	0,009434
821,000000	0,009507
820,000000	0,009495
819,000000	0,009421
818,000000	0,009296
817,000000	0,009442
816,000000	0,009408
815,000000	0,009339
814,000000	0,009326
813,000000	0,009397
812,000000	0,009471
811,000000	0,009405
810,000000	0,009465
809,000000	0,009337
808,000000	0,009412
807,000000	0,009397
806,000000	0,009413
805,000000	0,009410
804,000000	0,009374
803,000000	0,009431
802,000000	0,009418
801,000000	0,009315
800,000000	0,009427
799,000000	0,009492
798,000000	0,009523
797,000000	0,009532
796,000000	0,009549
795,000000	0,009567
794,000000	0,009513
793,000000	0,009551
792,000000	0,009554
791,000000	0,009601
790,000000	0,009689
789,000000	0,009727
788,000000	0,009822
787,000000	0,009882
786,000000	0,009859
785,000000	0,009864
784,000000	0,009930
783,000000	0,009998
782,000000	0,009944
781,000000	0,010082
780,000000	0,010189
779,000000	0,010229
778,000000	0,010427
777,000000	0,010501
776,000000	0,010643
775,000000	0,010801
774,000000	0,011000
773,000000	0,011172
772,000000	0,011424
771,000000	0,011609
770,000000	0,011805
769,000000	0,012032
768,000000	0,012362
767,000000	0,012707
766,000000	0,013115
765,000000	0,013625
764,000000	0,014138
763,000000	0,014673
762,000000	0,015279
761,000000	0,015926
760,000000	0,016735
759,000000	0,017496
758,000000	0,018456
757,000000	0,019387
756,000000	0,020553
755,000000	0,021890
754,000000	0,023308
753,000000	0,024718
752,000000	0,026574
751,000000	0,028301
750,000000	0,030492
749,000000	0,032717
748,000000	0,035208
747,000000	0,037882
746,000000	0,040983
745,000000	0,044225
744,000000	0,047826
743,000000	0,051717
742,000000	0,055936
741,000000	0,060456
740,000000	0,065717
739,000000	0,071049
738,000000	0,077111
737,000000	0,083586
736,000000	0,090572
735,000000	0,098236
734,000000	0,106528
733,000000	0,115761
732,000000	0,125618
731,000000	0,136431
730,000000	0,148495
729,000000	0,161642
728,000000	0,175974
727,000000	0,191653
726,000000	0,208986
725,000000	0,227660
724,000000	0,248213
723,000000	0,270328
722,000000	0,294547
721,000000	0,320984
720,000000	0,349891
719,000000	0,381285
718,000000	0,415001
717,000000	0,451461
716,000000	0,490345
715,000000	0,532182
714,000000	0,576447
713,000000	0,622855
712,000000	0,672006
711,000000	0,724043
710,000000	0,778575
709,000000	0,834976
708,000000	0,893088
707,000000	0,952332
706,000000	1,012343
705,000000	1,072629
704,000000	1,133381
703,000000	1,194091
702,000000	1,254385
701,000000	1,313623
700,000000	1,370660
699,000000	1,425574
698,000000	1,477631
697,000000	1,527012
696,000000	1,571660
695,000000	1,612903
694,000000	1,649715
693,000000	1,681760
692,000000	1,708797
691,000000	1,731273
690,000000	1,748792
689,000000	1,761166
688,000000	1,768658
687,000000	1,770272
686,000000	1,767529
685,000000	1,759764
684,000000	1,746919
683,000000	1,730146
682,000000	1,707381
681,000000	1,681191
680,000000	1,650166
679,000000	1,617125
678,000000	1,579514
677,000000	1,540172
676,000000	1,498370
675,000000	1,455562
674,000000	1,411468
673,000000	1,365143
672,000000	1,318389
671,000000	1,271763
670,000000	1,225475
669,000000	1,179713
668,000000	1,135138
667,000000	1,091312
666,000000	1,049625
665,000000	1,009647
664,000000	0,970964
663,000000	0,934003
662,000000	0,898368
661,000000	0,865022
660,000000	0,833846
659,000000	0,804696
658,000000	0,777973
657,000000	0,753020
656,000000	0,729999
655,000000	0,708933
654,000000	0,689555
653,000000	0,671897
652,000000	0,655866
651,000000	0,641122
650,000000	0,628286
649,000000	0,616747
648,000000	0,606327
647,000000	0,597059
646,000000	0,588722
645,000000	0,581269
644,000000	0,574294
643,000000	0,567882
642,000000	0,562095
641,000000	0,556571
640,000000	0,551520
639,000000	0,546609
638,000000	0,541623
637,000000	0,536549
636,000000	0,531484
635,000000	0,526219
634,000000	0,520940
633,000000	0,515433
632,000000	0,509350
631,000000	0,503122
630,000000	0,496400
629,000000	0,489569
628,000000	0,482451
627,000000	0,474985
626,000000	0,467156
625,000000	0,459194
624,000000	0,450725
623,000000	0,442101
622,000000	0,433289
621,000000	0,424270
620,000000	0,415195
619,000000	0,405747
618,000000	0,396577
617,000000	0,387339
616,000000	0,377878
615,000000	0,368328
614,000000	0,358954
613,000000	0,349748
612,000000	0,340546
611,000000	0,331591
610,000000	0,322836
609,000000	0,314268
608,000000	0,305897
607,000000	0,297776
606,000000	0,289732
605,000000	0,282164
604,000000	0,274621
603,000000	0,267167
602,000000	0,260329
601,000000	0,253614
600,000000	0,247191
599,000000	0,241122
598,000000	0,235392
597,000000	0,229778
596,000000	0,224269
595,000000	0,219103
594,000000	0,214168
593,000000	0,209652
592,000000	0,205159
591,000000	0,200907
590,000000	0,197134
589,000000	0,193271
588,000000	0,189494
587,000000	0,185851
586,000000	0,182213
585,000000	0,178863
584,000000	0,175401
583,000000	0,171988
582,000000	0,168828
581,000000	0,165556
580,000000	0,162334
579,000000	0,159203
578,000000	0,155939
577,000000	0,152672
576,000000	0,149489
575,000000	0,146379
574,000000	0,143153
573,000000	0,140042
572,000000	0,136923
571,000000	0,133819
570,000000	0,130721
569,000000	0,127632
568,000000	0,124592
567,000000	0,121478
566,000000	0,118579
565,000000	0,115376
564,000000	0,112308
563,000000	0,109439
562,000000	0,106568
561,000000	0,103724
560,000000	0,100908
559,000000	0,097955
558,000000	0,094916
557,000000	0,092288
556,000000	0,089736
555,000000	0,087186
554,000000	0,084638
553,000000	0,082275
552,000000	0,079981
551,000000	0,077639
550,000000	0,075445
549,000000	0,073381
548,000000	0,071178
547,000000	0,069067
546,000000	0,067160
545,000000	0,065187
544,000000	0,063312
543,000000	0,061483
542,000000	0,059725
541,000000	0,058142
540,000000	0,056475
539,000000	0,054932
538,000000	0,053361
537,000000	0,051842
536,000000	0,050414
535,000000	0,048811
534,000000	0,047467
533,000000	0,046135
532,000000	0,044807
531,000000	0,043625
530,000000	0,042538
529,000000	0,041278
528,000000	0,040152
527,000000	0,039061
526,000000	0,038056
525,000000	0,036906
524,000000	0,035978
523,000000	0,034856
522,000000	0,033926
521,000000	0,032932
520,000000	0,032149
519,000000	0,031116
518,000000	0,030160
517,000000	0,029453
516,000000	0,028657
515,000000	0,027723
514,000000	0,026952
513,000000	0,026270
512,000000	0,025422
511,000000	0,024772
510,000000	0,024016
509,000000	0,023357
508,000000	0,022568
507,000000	0,021951
506,000000	0,021419
505,000000	0,020807
504,000000	0,020126
503,000000	0,019526
502,000000	0,019024
501,000000	0,018535
500,000000	0,018005
499,000000	0,017526
498,000000	0,017131
497,000000	0,016616
496,000000	0,016115
495,000000	0,015827
494,000000	0,015314
493,000000	0,014930
492,000000	0,014581
491,000000	0,014265
490,000000	0,013786
489,000000	0,013487
488,000000	0,013115
487,000000	0,012940
486,000000	0,012600
485,000000	0,012315
484,000000	0,011934
483,000000	0,011752
482,000000	0,011438
481,000000	0,011169
480,000000	0,011009
479,000000	0,010650
478,000000	0,010423
477,000000	0,010219
476,000000	0,010038
475,000000	0,009813
474,000000	0,009594
473,000000	0,009344
472,000000	0,009279
471,000000	0,009078
470,000000	0,008932
469,000000	0,008897
468,000000	0,008742
467,000000	0,008466
466,000000	0,008451
465,000000	0,008226
464,000000	0,008060
463,000000	0,008094
462,000000	0,007847
461,000000	0,007632
460,000000	0,007550
459,000000	0,007586
458,000000	0,007534
457,000000	0,007528
456,000000	0,007384
455,000000	0,007293
454,000000	0,007169
453,000000	0,007069
452,000000	0,007029
451,000000	0,006979
450,000000	0,006933
449,000000	0,006946
448,000000	0,006838
447,000000	0,006811
446,000000	0,006717
445,000000	0,006854
444,000000	0,006772
443,000000	0,006682
442,000000	0,006629
441,000000	0,006841
440,000000	0,006687
439,000000	0,006718
438,000000	0,006776
437,000000	0,006824
436,000000	0,006789
435,000000	0,006829
434,000000	0,007018
433,000000	0,007097
432,000000	0,007189
431,000000	0,007405
430,000000	0,007423
429,000000	0,007610
428,000000	0,007771
427,000000	0,007771
426,000000	0,007973
425,000000	0,008283
424,000000	0,008537
423,000000	0,008542
422,000000	0,008894
421,000000	0,009036
420,000000	0,009187
419,000000	0,009551
418,000000	0,009618
417,000000	0,009855
416,000000	0,010125
415,000000	0,010240
414,000000	0,010580
413,000000	0,010681
412,000000	0,011017
411,000000	0,011137
410,000000	0,011359
409,000000	0,011721
408,000000	0,011850
407,000000	0,012101
406,000000	0,012194
405,000000	0,012583
404,000000	0,012860
403,000000	0,013193
402,000000	0,013755
401,000000	0,014145
400,000000	0,014793
399,000000	0,015662
398,000000	0,016486
397,000000	0,017467
396,000000	0,018885
395,000000	0,020276
394,000000	0,021918
393,000000	0,023898
392,000000	0,025641
391,000000	0,027631
390,000000	0,029919
389,000000	0,032202
388,000000	0,034526
387,000000	0,036620
386,000000	0,038821
385,000000	0,040692
384,000000	0,043049
383,000000	0,044391
382,000000	0,045082
381,000000	0,045782
380,000000	0,045927
379,000000	0,045936
378,000000	0,045604
377,000000	0,044943
376,000000	0,044197
375,000000	0,043759
374,000000	0,042938
373,000000	0,042325
372,000000	0,041806
371,000000	0,041453
370,000000	0,041107
369,000000	0,041207
368,000000	0,041130
367,000000	0,041432
366,000000	0,041153
365,000000	0,041289
364,000000	0,041147
363,000000	0,041148
362,000000	0,040893
361,000000	0,040879
360,000000	0,040662
359,000000	0,040180
358,000000	0,039778
357,000000	0,039872
356,000000	0,039434
355,000000	0,039061
354,000000	0,039166
353,000000	0,039977
352,000000	0,040834
351,000000	0,042681
350,000000	0,044871
349,000000	0,047928
348,000000	0,052217
347,000000	0,057606
346,000000	0,064044
345,000000	0,072140
344,000000	0,082525
343,000000	0,094187
342,000000	0,109755
341,000000	0,125386
340,000000	0,141043
339,000000	0,153345
338,000000	0,159665
337,000000	0,159548
336,000000	0,152212
335,000000	0,142053
334,000000	0,130512
333,000000	0,121677
332,000000	0,113627
331,000000	0,108165
330,000000	0,105337
329,000000	0,102785
328,000000	0,100758
327,000000	0,099003
326,000000	0,097720
325,000000	0,095828
324,000000	0,093708
323,000000	0,091045
322,000000	0,088378
321,000000	0,085523
320,000000	0,082620
319,000000	0,079863
318,000000	0,077782
317,000000	0,076211
316,000000	0,074814
315,000000	0,073270
314,000000	0,072470
313,000000	0,071071
312,000000	0,070230
311,000000	0,069883
310,000000	0,069155
309,000000	0,068638
308,000000	0,067609
307,000000	0,067142
306,000000	0,066574
305,000000	0,066010
304,000000	0,065917
303,000000	0,065980
302,000000	0,066127
301,000000	0,066137
300,000000	0,066443
299,000000	0,067052
298,000000	0,067299
297,000000	0,066615
296,000000	0,067510
295,000000	0,068683
294,000000	0,067873
293,000000	0,069705
292,000000	0,070911
291,000000	0,073680
290,000000	0,072203
289,000000	0,070737
288,000000	0,069872
287,000000	0,074751
286,000000	0,065968
285,000000	0,072936
284,000000	0,086295
283,000000	0,068923
282,000000	0,020065
281,000000	0,029231
280,000000	0,050221
279,000000	0,032165
278,000000	0,053957
277,000000	0,000603
276,000000	0,003201
275,000000	-0,009129
274,000000	-0,003301
273,000000	0,062092
272,000000	-0,060671
271,000000	0,101812
270,000000	0,014304
269,000000	-0,029619
268,000000	0,148029
267,000000	-0,033148
266,000000	-0,012830
265,000000	0,026187
264,000000	0,188442
263,000000	-0,033781
262,000000	0,038672
261,000000	-0,107252
260,000000	-0,000845
259,000000	0,078616
258,000000	0,175700
257,000000	0,068200
256,000000	-0,021967
255,000000	0,036769
254,000000	0,047266
253,000000	0,206868
252,000000	-0,006195
251,000000	0,043285
250,000000	-0,010539
249,000000	0,046377
248,000000	0,094609
247,000000	0,154667
246,000000	-0,042512
245,000000	0,051257
244,000000	0,097879
243,000000	0,235085
242,000000	-0,133193
241,000000	0,078056
240,000000	-0,089462
239,000000	0,108931
238,000000	-0,175573
237,000000	0,013083
236,000000	0,239644
235,000000	-0,117373
234,000000	0,026666
233,000000	0,101124
232,000000	0,435868
231,000000	-0,342644
230,000000	-0,027281
229,000000	0,281452
228,000000	-0,106239
227,000000	0,085099
226,000000	-0,979687
225,000000	-0,911512
224,000000	-0,199474
223,000000	0,054900
222,000000	0,100350
221,000000	-0,016433
220,000000	0,070498
219,000000	-0,041801
218,000000	-0,203140
217,000000	-0,200043
216,000000	0,245226
215,000000	0,197347
214,000000	-0,199504
213,000000	-0,513845
212,000000	0,113485
211,000000	-0,071958
210,000000	0,084021
209,000000	-0,195171
208,000000	0,055233
207,000000	0,309799
206,000000	-0,099809
205,000000	-0,093101
204,000000	-0,075485
203,000000	0,198524
202,000000	-0,023116
201,000000	0,306575
200,000000	-0,151161
