PE UV       SUBTECH     SPECTRUM    ASCII       PEDS        4.00        
   -1
Ethanol vs Ethanol.Sample.Raw.asc
26/09/02
14:50:06.00
26/09/02
14:50:06.00
Analyst

200,000000
1
Lambda 35
502S09021304
PerkinElmer UV WinLab 6.0.2.0723 / Lambda35 1.27

480
2
1
0
0
Both on
1
1
1
None
0
0
0
0
 
 
0
0
0
0
0
 
 
 
0
 
0
326
0
 
0
 
 
 
0
0
0
 
0
 
 
 
0
 
 
0
0
0
0
0
 
 
 
 
0
0
#HDR
-1
-1
#GR
nm
A
1.0
0.0
900,000000
-1,000000
701
8
0,371021
-0,915663
#DATA
900,000000	-0,000212
899,000000	-0,000246
898,000000	-0,000332
897,000000	-0,000294
896,000000	-0,000194
895,000000	-0,000287
894,000000	-0,000336
893,000000	-0,000183
892,000000	-0,000183
891,000000	-0,000272
890,000000	-0,000224
889,000000	-0,000134
888,000000	-0,000071
887,000000	-0,000168
886,000000	-0,000086
885,000000	-0,000167
884,000000	-0,000223
883,000000	-0,000182
882,000000	-0,000145
881,000000	-0,000181
880,000000	-0,000178
879,000000	-0,000166
878,000000	-0,000288
877,000000	-0,000225
876,000000	-0,000313
875,000000	-0,000265
874,000000	-0,000158
873,000000	-0,000151
872,000000	-0,000209
871,000000	-0,000330
870,000000	-0,000301
869,000000	-0,000238
868,000000	-0,000223
867,000000	-0,000264
866,000000	-0,000238
865,000000	-0,000267
864,000000	-0,000161
863,000000	-0,000153
862,000000	-0,000212
861,000000	-0,000274
860,000000	-0,000372
859,000000	-0,000251
858,000000	-0,000299
857,000000	-0,000277
856,000000	-0,000360
855,000000	-0,000313
854,000000	-0,000349
853,000000	-0,000233
852,000000	-0,000163
851,000000	-0,000280
850,000000	-0,000363
849,000000	-0,000316
848,000000	-0,000287
847,000000	-0,000286
846,000000	-0,000275
845,000000	-0,000326
844,000000	-0,000377
843,000000	-0,000199
842,000000	-0,000253
841,000000	-0,000348
840,000000	-0,000185
839,000000	-0,000170
838,000000	-0,000235
837,000000	-0,000300
836,000000	-0,000311
835,000000	-0,000286
834,000000	-0,000213
833,000000	-0,000156
832,000000	-0,000203
831,000000	-0,000315
830,000000	-0,000279
829,000000	-0,000376
828,000000	-0,000253
827,000000	-0,000333
826,000000	-0,000268
825,000000	-0,000344
824,000000	-0,000279
823,000000	-0,000294
822,000000	-0,000315
821,000000	-0,000286
820,000000	-0,000228
819,000000	-0,000276
818,000000	-0,000446
817,000000	-0,000243
816,000000	-0,000301
815,000000	-0,000418
814,000000	-0,000254
813,000000	-0,000302
812,000000	-0,000204
811,000000	-0,000262
810,000000	-0,000306
809,000000	-0,000437
808,000000	-0,000310
807,000000	-0,000306
806,000000	-0,000299
805,000000	-0,000369
804,000000	-0,000325
803,000000	-0,000321
802,000000	-0,000336
801,000000	-0,000355
800,000000	-0,000234
799,000000	-0,000293
798,000000	-0,000216
797,000000	-0,000220
796,000000	-0,000282
795,000000	-0,000264
794,000000	-0,000319
793,000000	-0,000260
792,000000	-0,000378
791,000000	-0,000290
790,000000	-0,000298
789,000000	-0,000360
788,000000	-0,000243
787,000000	-0,000184
786,000000	-0,000280
785,000000	-0,000247
784,000000	-0,000306
783,000000	-0,000233
782,000000	-0,000248
781,000000	-0,000222
780,000000	-0,000281
779,000000	-0,000359
778,000000	-0,000252
777,000000	-0,000248
776,000000	-0,000237
775,000000	-0,000334
774,000000	-0,000263
773,000000	-0,000356
772,000000	-0,000293
771,000000	-0,000230
770,000000	-0,000275
769,000000	-0,000212
768,000000	-0,000294
767,000000	-0,000205
766,000000	-0,000291
765,000000	-0,000294
764,000000	-0,000216
763,000000	-0,000295
762,000000	-0,000287
761,000000	-0,000422
760,000000	-0,000291
759,000000	-0,000262
758,000000	-0,000209
757,000000	-0,000266
756,000000	-0,000240
755,000000	-0,000146
754,000000	-0,000274
753,000000	-0,000289
752,000000	-0,000218
751,000000	-0,000285
750,000000	-0,000214
749,000000	-0,000199
748,000000	-0,000237
747,000000	-0,000256
746,000000	-0,000290
745,000000	-0,000260
744,000000	-0,000233
743,000000	-0,000275
742,000000	-0,000241
741,000000	-0,000279
740,000000	-0,000147
739,000000	-0,000257
738,000000	-0,000098
737,000000	-0,000212
736,000000	-0,000227
735,000000	-0,000216
734,000000	-0,000329
733,000000	-0,000193
732,000000	-0,000212
731,000000	-0,000189
730,000000	-0,000261
729,000000	-0,000254
728,000000	-0,000178
727,000000	-0,000285
726,000000	-0,000296
725,000000	-0,000254
724,000000	-0,000197
723,000000	-0,000156
722,000000	-0,000281
721,000000	-0,000217
720,000000	-0,000262
719,000000	-0,000266
718,000000	-0,000244
717,000000	-0,000164
716,000000	-0,000358
715,000000	-0,000305
714,000000	-0,000278
713,000000	-0,000255
712,000000	-0,000362
711,000000	-0,000382
710,000000	-0,000347
709,000000	-0,000332
708,000000	-0,000367
707,000000	-0,000294
706,000000	-0,000317
705,000000	-0,000333
704,000000	-0,000363
703,000000	-0,000318
702,000000	-0,000341
701,000000	-0,000375
700,000000	-0,000417
699,000000	-0,000417
698,000000	-0,000406
697,000000	-0,000330
696,000000	-0,000341
695,000000	-0,000387
694,000000	-0,000364
693,000000	-0,000422
692,000000	-0,000422
691,000000	-0,000445
690,000000	-0,000499
689,000000	-0,000546
688,000000	-0,000396
687,000000	-0,000604
686,000000	-0,000469
685,000000	-0,000481
684,000000	-0,000550
683,000000	-0,000635
682,000000	-0,000712
681,000000	-0,000616
680,000000	-0,000570
679,000000	-0,000701
678,000000	-0,000648
677,000000	-0,000683
676,000000	-0,000675
675,000000	-0,000702
674,000000	-0,000633
673,000000	-0,000776
672,000000	-0,000692
671,000000	-0,000607
670,000000	-0,000723
669,000000	-0,000684
668,000000	-0,000669
667,000000	-0,000654
666,000000	-0,000677
665,000000	-0,000678
664,000000	-0,000798
663,000000	-0,000659
662,000000	-0,000643
661,000000	-0,000818
660,000000	-0,000744
659,000000	-0,000605
658,000000	-0,000671
657,000000	-0,000718
656,000000	-0,000753
655,000000	-0,000761
654,000000	-0,000753
653,000000	-0,000746
652,000000	-0,000645
651,000000	-0,000836
650,000000	-0,000762
649,000000	-0,000735
648,000000	-0,000817
647,000000	-0,000821
646,000000	-0,000704
645,000000	-0,000751
644,000000	-0,000856
643,000000	-0,000743
642,000000	-0,000841
641,000000	-0,000821
640,000000	-0,000794
639,000000	-0,000763
638,000000	-0,000728
637,000000	-0,000767
636,000000	-0,000725
635,000000	-0,000799
634,000000	-0,000815
633,000000	-0,000682
632,000000	-0,000881
631,000000	-0,000741
630,000000	-0,000835
629,000000	-0,000812
628,000000	-0,000882
627,000000	-0,000882
626,000000	-0,000820
625,000000	-0,000851
624,000000	-0,000875
623,000000	-0,000867
622,000000	-0,000887
621,000000	-0,000923
620,000000	-0,000848
619,000000	-0,001009
618,000000	-0,000951
617,000000	-0,000845
616,000000	-0,000939
615,000000	-0,000924
614,000000	-0,000932
613,000000	-0,001038
612,000000	-0,001019
611,000000	-0,000964
610,000000	-0,000847
609,000000	-0,000977
608,000000	-0,000958
607,000000	-0,001072
606,000000	-0,001147
605,000000	-0,000978
604,000000	-0,001006
603,000000	-0,001042
602,000000	-0,001019
601,000000	-0,001059
600,000000	-0,001039
599,000000	-0,001139
598,000000	-0,001194
597,000000	-0,001029
596,000000	-0,001058
595,000000	-0,001051
594,000000	-0,001241
593,000000	-0,001049
592,000000	-0,001165
591,000000	-0,001202
590,000000	-0,001155
589,000000	-0,001073
588,000000	-0,001134
587,000000	-0,001076
586,000000	-0,001212
585,000000	-0,001098
584,000000	-0,001187
583,000000	-0,001217
582,000000	-0,001162
581,000000	-0,001111
580,000000	-0,001140
579,000000	-0,001197
578,000000	-0,001181
577,000000	-0,001294
576,000000	-0,001239
575,000000	-0,001138
574,000000	-0,001219
573,000000	-0,001263
572,000000	-0,001139
571,000000	-0,001131
570,000000	-0,001223
569,000000	-0,001215
568,000000	-0,001179
567,000000	-0,001183
566,000000	-0,001150
565,000000	-0,001275
564,000000	-0,001215
563,000000	-0,001206
562,000000	-0,001274
561,000000	-0,001286
560,000000	-0,001182
559,000000	-0,001181
558,000000	-0,001253
557,000000	-0,001168
556,000000	-0,001156
555,000000	-0,001192
554,000000	-0,001248
553,000000	-0,001264
552,000000	-0,001300
551,000000	-0,001248
550,000000	-0,001292
549,000000	-0,001227
548,000000	-0,001243
547,000000	-0,001327
546,000000	-0,001227
545,000000	-0,001260
544,000000	-0,001244
543,000000	-0,001284
542,000000	-0,001296
541,000000	-0,001261
540,000000	-0,001313
539,000000	-0,001213
538,000000	-0,001253
537,000000	-0,001274
536,000000	-0,001238
535,000000	-0,001359
534,000000	-0,001231
533,000000	-0,001263
532,000000	-0,001348
531,000000	-0,001183
530,000000	-0,001212
529,000000	-0,001148
528,000000	-0,001180
527,000000	-0,001217
526,000000	-0,001092
525,000000	-0,001193
524,000000	-0,001169
523,000000	-0,001166
522,000000	-0,001190
521,000000	-0,001211
520,000000	-0,001126
519,000000	-0,001219
518,000000	-0,001183
517,000000	-0,001083
516,000000	-0,001022
515,000000	-0,001111
514,000000	-0,001011
513,000000	-0,001071
512,000000	-0,001120
511,000000	-0,000939
510,000000	-0,000975
509,000000	-0,000955
508,000000	-0,000956
507,000000	-0,000968
506,000000	-0,000932
505,000000	-0,000912
504,000000	-0,000916
503,000000	-0,000957
502,000000	-0,001042
501,000000	-0,000856
500,000000	-0,000945
499,000000	-0,000933
498,000000	-0,000828
497,000000	-0,000804
496,000000	-0,000849
495,000000	-0,000760
494,000000	-0,000825
493,000000	-0,000841
492,000000	-0,000834
491,000000	-0,000883
490,000000	-0,000814
489,000000	-0,000786
488,000000	-0,000778
487,000000	-0,000643
486,000000	-0,000697
485,000000	-0,000721
484,000000	-0,000685
483,000000	-0,000604
482,000000	-0,000669
481,000000	-0,000628
480,000000	-0,000616
479,000000	-0,000600
478,000000	-0,000658
477,000000	-0,000564
476,000000	-0,000552
475,000000	-0,000569
474,000000	-0,000606
473,000000	-0,000618
472,000000	-0,000414
471,000000	-0,000455
470,000000	-0,000521
469,000000	-0,000451
468,000000	-0,000447
467,000000	-0,000616
466,000000	-0,000419
465,000000	-0,000518
464,000000	-0,000477
463,000000	-0,000436
462,000000	-0,000415
461,000000	-0,000304
460,000000	-0,000284
459,000000	-0,000309
458,000000	-0,000297
457,000000	-0,000251
456,000000	-0,000371
455,000000	-0,000421
454,000000	-0,000400
453,000000	-0,000384
452,000000	-0,000351
451,000000	-0,000331
450,000000	-0,000203
449,000000	-0,000277
448,000000	-0,000203
447,000000	-0,000261
446,000000	-0,000257
445,000000	-0,000249
444,000000	-0,000204
443,000000	-0,000246
442,000000	-0,000212
441,000000	-0,000146
440,000000	-0,000255
439,000000	-0,000230
438,000000	-0,000042
437,000000	-0,000176
436,000000	-0,000247
435,000000	-0,000126
434,000000	-0,000126
433,000000	-0,000092
432,000000	-0,000222
431,000000	0,000063
430,000000	-0,000000
429,000000	-0,000029
428,000000	0,000025
427,000000	-0,000017
426,000000	-0,000126
425,000000	0,000004
424,000000	0,000029
423,000000	-0,000050
422,000000	-0,000017
421,000000	-0,000025
420,000000	0,000042
419,000000	0,000046
418,000000	-0,000071
417,000000	-0,000021
416,000000	-0,000059
415,000000	-0,000101
414,000000	0,000017
413,000000	-0,000017
412,000000	0,000017
411,000000	-0,000029
410,000000	-0,000034
409,000000	0,000034
408,000000	-0,000021
407,000000	0,000076
406,000000	-0,000025
405,000000	0,000059
404,000000	0,000021
403,000000	-0,000017
402,000000	0,000063
401,000000	-0,000021
400,000000	-0,000034
399,000000	0,000051
398,000000	-0,000029
397,000000	-0,000051
396,000000	0,000055
395,000000	0,000067
394,000000	0,000055
393,000000	-0,000017
392,000000	0,000084
391,000000	0,000118
390,000000	0,000013
389,000000	0,000008
388,000000	0,000055
387,000000	0,000025
386,000000	-0,000004
385,000000	0,000046
384,000000	0,000289
383,000000	0,000399
382,000000	0,000084
381,000000	0,000076
380,000000	0,000017
379,000000	-0,000248
378,000000	0,000118
377,000000	0,000025
376,000000	-0,000097
375,000000	0,000148
374,000000	-0,000021
373,000000	0,000063
372,000000	0,000055
371,000000	0,000051
370,000000	0,000072
369,000000	-0,000013
368,000000	-0,000059
367,000000	0,000433
366,000000	0,000147
365,000000	0,000017
364,000000	-0,000080
363,000000	0,000147
362,000000	0,000038
361,000000	0,000151
360,000000	0,000285
359,000000	0,000143
358,000000	-0,000084
357,000000	0,000130
356,000000	0,000168
355,000000	-0,000281
354,000000	-0,000042
353,000000	-0,000084
352,000000	0,000252
351,000000	0,000240
350,000000	0,000110
349,000000	0,000084
348,000000	0,000186
347,000000	0,000177
346,000000	-0,000038
345,000000	0,000127
344,000000	0,000390
343,000000	0,000055
342,000000	0,000335
341,000000	-0,000254
340,000000	0,000284
339,000000	0,000199
338,000000	-0,000212
337,000000	0,000166
336,000000	0,000187
335,000000	0,000106
334,000000	-0,000081
333,000000	0,000013
332,000000	-0,000094
331,000000	0,000055
330,000000	0,000264
329,000000	0,000268
328,000000	0,000034
327,000000	-0,000059
326,000000	-0,000063
325,000000	0,000080
324,000000	-0,000130
323,000000	-0,000013
322,000000	0,000008
321,000000	0,000198
320,000000	0,000337
319,000000	-0,000202
318,000000	-0,000008
317,000000	0,000080
316,000000	-0,000042
315,000000	-0,000025
314,000000	0,000202
313,000000	-0,000084
312,000000	-0,000139
311,000000	0,000063
310,000000	0,000278
309,000000	0,000156
308,000000	-0,000113
307,000000	-0,000185
306,000000	0,000399
305,000000	0,000118
304,000000	0,000046
303,000000	0,000130
302,000000	-0,000017
301,000000	0,000004
300,000000	0,000383
299,000000	0,000590
298,000000	0,000405
297,000000	0,000361
296,000000	-0,000529
295,000000	0,000348
294,000000	0,000219
293,000000	0,000146
292,000000	0,000510
291,000000	-0,000964
290,000000	-0,000702
289,000000	0,003180
288,000000	-0,002700
287,000000	0,000439
286,000000	0,001717
285,000000	0,002661
284,000000	0,020846
283,000000	0,013014
282,000000	-0,033373
281,000000	-0,000341
280,000000	0,028567
279,000000	0,000554
278,000000	0,030375
277,000000	-0,021334
276,000000	-0,088271
275,000000	-0,018644
274,000000	-0,056535
273,000000	-0,026293
272,000000	-0,115478
271,000000	0,012722
270,000000	0,032415
269,000000	-0,042116
268,000000	0,042704
267,000000	0,063572
266,000000	-0,027617
265,000000	-0,016598
264,000000	0,021447
263,000000	-0,058345
262,000000	-0,119000
261,000000	-0,071445
260,000000	-0,017847
259,000000	-0,032675
258,000000	0,064137
257,000000	-0,005506
256,000000	0,092610
255,000000	-0,126671
254,000000	-0,085855
253,000000	0,059399
252,000000	-0,007981
251,000000	0,065967
250,000000	-0,038144
249,000000	0,050573
248,000000	-0,020079
247,000000	0,175243
246,000000	-0,038814
245,000000	0,123763
244,000000	0,124442
243,000000	0,248656
242,000000	-0,120046
241,000000	-0,057978
240,000000	0,014234
239,000000	0,080075
238,000000	-0,013086
237,000000	0,013903
236,000000	-0,061412
235,000000	-0,097249
234,000000	-0,033110
233,000000	0,148550
232,000000	0,371021
231,000000	-0,464832
230,000000	-0,068955
229,000000	0,168336
228,000000	-0,204170
227,000000	0,154535
226,000000	-0,084870
225,000000	-0,179904
224,000000	-0,055404
223,000000	0,195683
222,000000	0,037716
221,000000	0,043802
220,000000	0,113438
219,000000	-0,006470
218,000000	-0,120307
217,000000	-0,126271
216,000000	0,197006
215,000000	0,197438
214,000000	-0,060429
213,000000	-0,224886
212,000000	-0,012077
211,000000	-0,245276
210,000000	-0,095852
209,000000	0,144372
208,000000	0,066614
207,000000	0,092465
206,000000	-0,104433
205,000000	-0,058293
204,000000	-0,074101
203,000000	-0,057420
202,000000	-0,915663
201,000000	-0,291486
200,000000	0,056578
